#Time [s]	Free Stream Temperature [K]	Boundary Layer Temperature [K]	Skin Temperature [K]	Convective Heat Transfer Coefficient [W/m^2-K]	
0.000000	285.269500	285.269500	285.269500	0.000000	
0.004000	285.269500	285.269500	285.269781	0.000000	
0.008000	285.269500	285.269500	285.270062	0.000000	
0.012000	285.269500	285.269500	285.270343	0.000000	
0.016000	285.269500	285.269500	285.270624	0.000000	
0.020000	285.269500	285.269500	285.270905	0.000000	
0.024000	285.269500	285.269500	285.271186	0.000000	
0.028000	285.269500	285.269500	285.271467	0.000000	
0.032000	285.269500	285.269500	285.271748	0.179957	
0.036000	285.269500	285.269501	285.272028	0.576340	
0.040000	285.269500	285.269503	285.272309	1.131885	
0.044000	285.269500	285.269514	285.272590	2.141582	
0.048000	285.269500	285.269557	285.272871	3.767873	
0.052000	285.269500	285.269677	285.273152	5.926145	
0.056000	285.269500	285.269978	285.273433	8.817009	
0.060000	285.269500	285.270614	285.273714	12.367811	
0.064000	285.269400	285.271673	285.273995	16.452308	
0.068000	285.269400	285.273576	285.274276	20.981562	
0.072000	285.269300	285.276348	285.274557	25.868230	
0.076000	285.269200	285.280066	285.274838	30.758231	
0.080000	285.269000	285.284686	285.275119	35.622851	
0.084000	285.268900	285.290409	285.275400	40.417024	
0.088000	285.268700	285.296988	285.275682	45.095893	
0.092000	285.268500	285.304526	285.275964	49.674158	
0.096000	285.268200	285.312871	285.276247	54.134998	
0.100000	285.268000	285.322204	285.276530	58.487165	
0.104000	285.267700	285.332276	285.276815	62.727266	
0.108000	285.267400	285.343129	285.277100	66.851946	
0.112000	285.267000	285.354635	285.277387	70.869059	
0.116000	285.266600	285.366858	285.277675	74.783810	
0.120000	285.266300	285.379869	285.277964	78.603315	
0.124000	285.265800	285.393331	285.278256	82.329345	
0.128000	285.265400	285.407507	285.278549	85.965942	
0.132000	285.265000	285.422274	285.278844	89.518732	
0.136000	285.264500	285.437551	285.279142	93.001392	
0.140000	285.264000	285.453423	285.279441	96.418663	
0.144000	285.263400	285.469796	285.279744	99.778255	
0.148000	285.262900	285.486884	285.280049	103.088126	
0.152000	285.262300	285.504472	285.280358	106.349793	
0.156000	285.261700	285.522661	285.280669	109.567426	
0.160000	285.261100	285.541437	285.280985	112.742157	
0.164000	285.260500	285.560799	285.281303	115.877124	
0.168000	285.259800	285.580645	285.281626	118.974983	
0.172000	285.259100	285.601079	285.281953	122.037594	
0.176000	285.258400	285.622151	285.282284	125.076161	
0.180000	285.257700	285.643868	285.282620	128.091889	
0.184000	285.256900	285.666071	285.282960	131.076950	
0.188000	285.256200	285.688890	285.283306	134.026669	
0.192000	285.255400	285.712117	285.283657	136.940199	
0.196000	285.254600	285.735882	285.284013	139.825502	
0.200000	285.253700	285.760084	285.284376	142.681752	
0.204000	285.252900	285.784939	285.284744	145.513262	
0.208000	285.252000	285.810274	285.285119	148.325448	
0.212000	285.251100	285.836180	285.285500	151.115758	
0.216000	285.250200	285.862652	285.285889	153.885797	
0.220000	285.249200	285.889586	285.286284	156.637266	
0.224000	285.248300	285.917182	285.286687	159.368367	
0.228000	285.247300	285.945238	285.287097	162.081090	
0.232000	285.246300	285.973841	285.287516	164.774800	
0.236000	285.245300	286.002946	285.287942	167.446337	
0.240000	285.244200	286.032439	285.288377	170.095487	
0.244000	285.243200	286.062561	285.288822	172.726671	
0.248000	285.242100	286.093167	285.289275	175.344993	
0.252000	285.241000	286.124342	285.289737	177.949713	
0.256000	285.239800	286.155955	285.290210	180.538602	
0.260000	285.238700	286.188184	285.290692	183.110600	
0.264000	285.237500	286.220888	285.291185	185.669218	
0.268000	285.236300	286.254216	285.291688	188.221250	
0.272000	285.235100	286.288157	285.292203	190.764465	
0.276000	285.233900	286.322642	285.292729	193.294110	
0.280000	285.232700	286.357647	285.293266	195.807302	
0.284000	285.231400	286.393075	285.293816	198.307989	
0.288000	285.230100	286.429034	285.294378	200.793804	
0.292000	285.228800	286.465516	285.294953	203.267796	
0.296000	285.227500	286.502565	285.295540	205.729944	
0.300000	285.226100	286.540081	285.296141	208.183676	
0.304000	285.224700	286.578157	285.296756	210.625503	
0.308000	285.223300	286.616792	285.297385	213.058883	
0.312000	285.221900	286.655981	285.298028	215.480286	
0.316000	285.220500	286.695737	285.298687	217.892397	
0.320000	285.219000	286.735955	285.299360	220.296831	
0.326000	285.216800	286.797362	285.300393	223.881297	
0.335000	285.213400	286.891610	285.301998	229.215634	
0.348500	285.208100	287.037474	285.304531	237.101473	
0.368500	285.199800	287.264024	285.308585	248.576790	
0.388500	285.191100	287.503873	285.313123	259.856052	
0.408500	285.181800	287.756962	285.318197	270.952788	
0.428500	285.172000	288.022062	285.323862	281.828717	
0.448500	285.161700	288.300019	285.330169	292.526613	
0.468500	285.151000	288.590502	285.337174	303.044760	
0.488500	285.139700	288.894178	285.344935	313.418579	
0.508500	285.128000	289.210562	285.353511	323.628240	
0.528500	285.115700	289.541023	285.362963	333.730729	
0.548500	285.103000	289.884920	285.373357	343.699228	
0.568500	285.089800	290.242317	285.384759	353.540595	
0.588500	285.076000	290.613134	285.397236	363.257061	
0.608500	285.061800	290.997082	285.410856	372.841334	
0.628500	285.047100	291.395818	285.425689	382.330283	
0.648500	285.031900	291.807094	285.441810	391.675561	
0.668500	285.016200	292.233745	285.459289	400.939827	
0.688500	285.000000	292.674337	285.478206	410.094132	
0.708500	284.983300	293.127719	285.498638	419.110377	
0.728500	284.966100	293.595175	285.520658	428.021513	
0.748500	284.948500	294.075469	285.544346	436.797144	
0.768500	284.930300	294.569634	285.569777	445.467691	
0.788500	284.911600	295.076878	285.597031	454.015254	
0.808500	284.892400	295.596894	285.626186	462.433066	
0.828500	284.872800	296.127765	285.657319	470.700283	
0.848500	284.852600	296.670817	285.690501	478.840642	
0.868500	284.831900	297.225338	285.725807	486.845165	
0.888500	284.810800	297.789799	285.763309	494.696446	
0.908500	284.789200	298.366334	285.803074	502.426891	
0.928500	284.767100	298.956612	285.845178	510.060432	
0.948500	284.744500	299.558269	285.889703	517.568234	
0.968500	284.721400	300.172844	285.936722	524.970847	
0.988500	284.697800	300.801341	285.986315	532.280230	
1.008500	284.673700	301.441938	286.038566	539.475596	
1.028500	284.649200	302.094158	286.093550	546.553161	
1.048500	284.624200	302.759062	286.151343	553.526046	
1.068500	284.598700	303.437183	286.212022	560.400720	
1.088500	284.572700	304.127798	286.275668	567.170553	
1.108500	284.546200	304.831640	286.342359	573.842786	
1.128500	284.519200	305.548917	286.412175	580.420496	
1.148500	284.491700	306.281413	286.485199	586.918388	
1.168500	284.463800	307.026768	286.561521	593.314824	
1.188500	284.435400	307.786890	286.641219	599.627063	
1.208500	284.406500	308.561046	286.724380	605.848581	
1.228500	284.377000	309.349604	286.811090	611.982458	
1.248500	284.347100	310.151771	286.901432	618.021213	
1.268500	284.316800	310.967782	286.995489	623.966895	
1.288500	284.285900	311.798340	287.093342	629.826286	
1.308500	284.254500	312.646508	287.195077	635.618573	
1.328500	284.222600	313.505711	287.300793	641.298941	
1.348500	284.190300	314.381907	287.410558	646.906205	
1.368500	284.157400	315.274361	287.524467	652.436915	
1.388500	284.124000	316.180705	287.642613	657.873584	
1.408500	284.090200	317.102975	287.765076	663.229464	
1.428500	284.055800	318.040341	287.891945	668.499644	
1.448500	284.021000	318.993815	288.023304	673.688242	
1.468500	283.985600	319.963799	288.159244	678.799346	
1.488500	283.949800	320.949090	288.299855	683.823202	
1.508500	283.913400	321.950064	288.445220	688.764670	
1.528500	283.876600	322.967783	288.595426	693.625948	
1.548500	283.839200	324.000309	288.750563	698.399744	
1.568500	283.801300	325.050995	288.910708	703.101266	
1.588500	283.763000	326.122007	289.075960	707.738133	
1.608500	283.724100	327.209259	289.246426	712.292178	
1.628500	283.684700	328.312376	289.422190	716.761912	
1.648500	283.644800	329.432545	289.603335	721.151858	
1.668500	283.604400	330.573013	289.789947	725.475304	
1.688500	283.563400	331.732164	289.982131	729.724180	
1.708500	283.522000	332.915630	290.179983	733.919085	
1.728500	283.480000	334.119410	290.383629	738.043687	
1.748500	283.437500	335.342005	290.593170	742.091435	
1.768500	283.394500	336.582334	290.808701	746.058437	
1.788500	283.350900	337.842545	291.030307	749.952982	
1.808500	283.306800	339.126644	291.258085	753.785742	
1.828500	283.262200	340.432728	291.492153	757.549966	
1.848500	283.217100	341.761025	291.732621	761.245530	
1.868500	283.171400	343.114243	291.979594	764.879951	
1.888500	283.125140	344.489804	292.233196	768.443773	
1.908500	283.078370	345.888966	292.493532	771.940294	
1.928500	283.031040	347.315607	292.760715	775.379174	
1.948500	282.983160	348.765724	293.034879	778.748482	
1.968500	282.934730	350.234767	293.316133	782.035753	
1.988500	282.885750	351.729372	293.604559	785.257576	
2.008500	282.836210	353.257156	293.900274	788.432200	
2.028500	282.786100	354.811936	294.203443	791.541344	
2.048310	282.735920	356.380595	294.511238	794.561138	
2.066750	282.688690	357.868529	294.804791	797.321798	
2.083920	282.644270	359.274326	295.084343	799.839826	
2.099650	282.603220	360.577696	295.345825	802.098282	
2.114230	282.564840	361.804128	295.592799	804.160902	
2.127920	282.528530	362.969886	295.828768	806.066339	
2.140820	282.494050	364.081753	296.054762	807.834839	
2.153020	282.461220	365.145004	296.271774	809.483661	
2.164580	282.429910	366.162929	296.480373	811.024121	
2.175550	282.400010	367.138238	296.681023	812.465383	
2.185970	282.371440	368.072653	296.874064	813.815305	
2.195890	282.344110	368.972636	297.060077	815.089230	
2.205310	282.318010	369.834799	297.238756	816.284637	
2.214260	282.293060	370.660355	297.410379	817.406182	
2.222730	282.269380	371.445287	297.574479	818.453161	
2.230710	282.246950	372.191716	297.730590	819.431126	
2.238280	282.225580	372.904445	297.880038	820.349869	
2.245490	282.205160	373.586881	298.023612	821.214770	
2.252370	282.185590	374.241726	298.161739	822.031705	
2.258950	282.166800	374.874175	298.294876	822.809958	
2.265260	282.148740	375.483509	298.423506	823.550005	
2.271300	282.131360	376.070627	298.547514	824.263742	
2.277120	282.114600	376.636444	298.667823	824.942146	
2.282710	282.098440	377.183963	298.784136	825.590132	
2.288090	282.082830	377.713360	298.896784	826.209022	
2.293270	282.067750	378.226480	299.005901	826.802420	
2.298270	282.053180	378.723971	299.111840	827.371374	
2.303090	282.039090	379.205257	299.214538	827.915839	
2.307740	282.025470	379.671423	299.314149	828.437359	
2.312220	282.012280	380.123130	299.410618	828.937569	
2.316560	281.999500	380.561483	299.504540	829.417913	
2.320750	281.987130	380.987207	299.595654	829.880593	
2.324810	281.975140	381.399768	299.684354	830.323999	
2.328720	281.963530	381.799903	299.770161	830.750286	
2.332520	281.952260	382.187905	299.853917	831.160350	
2.336190	281.941330	382.564945	299.935146	831.554739	
2.339740	281.930730	382.931363	300.014038	831.935667	
2.343180	281.920450	383.287083	300.090786	832.301962	
2.346510	281.910500	383.631635	300.165362	832.653984	
2.349720	281.900860	383.965355	300.237513	832.992517	
2.352830	281.891520	384.289437	300.307663	833.318710	
2.355850	281.882450	384.604219	300.376016	833.633309	
2.358770	281.873660	384.910088	300.442324	833.936304	
2.361600	281.865110	385.207381	300.506793	834.229837	
2.364350	281.856800	385.497326	300.569635	834.513544	
2.367020	281.848720	385.779033	300.630832	834.787888	
2.369620	281.840850	386.054140	300.690598	835.054451	
2.372140	281.833190	386.321770	300.748690	835.311553	
2.374600	281.825730	386.583156	300.805555	835.561615	
2.376990	281.818450	386.837827	300.860950	835.803502	
2.379320	281.811360	387.086192	300.915095	836.037823	
2.381590	281.804440	387.329061	300.967980	836.266444	
2.383800	281.797680	387.565975	301.019594	836.487499	
2.385960	281.791080	387.797340	301.070161	836.703003	
2.388060	281.784640	388.023564	301.119439	836.912126	
2.390120	281.778340	388.244609	301.167888	837.115657	
2.392130	281.772190	388.460897	301.215267	837.313454	
2.394090	281.766170	388.672820	301.261568	837.506818	
2.396000	281.760280	388.879936	301.306783	837.694567	
2.397880	281.754520	389.083088	301.351380	837.877784	
2.399710	281.748880	389.281825	301.394878	838.056715	
2.401500	281.743360	389.476133	301.437510	838.230691	
2.403250	281.737960	389.667293	301.479270	838.401294	
2.404970	281.732660	389.854412	301.520392	838.566838	
2.406640	281.727480	390.037498	301.560392	838.728763	
2.408290	281.722390	390.217377	301.599985	838.887442	
2.409900	281.717410	390.394058	301.638686	839.042173	
2.411470	281.712530	390.567091	301.676491	839.193195	
2.413020	281.707740	390.736889	301.713878	839.341056	
2.414530	281.703040	390.903878	301.750360	839.486289	
2.416010	281.698430	391.067183	301.786176	839.627191	
2.417470	281.693910	391.228098	301.821565	839.766018	
2.418900	281.689470	391.385738	301.856280	839.901077	
2.420300	281.685120	391.540540	301.890320	840.033599	
2.421670	281.680840	391.692914	301.923680	840.163411	
2.423020	281.676640	391.842427	301.956601	840.290019	
2.424340	281.672510	391.989500	301.988838	840.414668	
2.425640	281.668460	392.133702	302.020631	840.536151	
2.426910	281.664470	392.275879	302.051734	840.655502	
2.428170	281.660560	392.415173	302.082634	840.772436	
2.429400	281.656710	392.552432	302.112839	840.887269	
2.430670	281.652720	392.694450	302.144067	841.005273	
2.431970	281.648660	392.839555	302.176076	841.125805	
2.433290	281.644520	392.987305	302.208623	841.248364	
2.434640	281.640300	393.138582	302.241957	841.373204	
2.436010	281.635990	393.292506	302.275833	841.499329	
2.437410	281.631600	393.449970	302.310502	841.628412	
2.438830	281.627110	393.610523	302.345719	841.759960	
2.440290	281.622530	393.775059	302.381983	841.893490	
2.441780	281.617850	393.943138	302.419050	842.029930	
2.443290	281.613070	394.114768	302.456674	842.168540	
2.444840	281.608190	394.290397	302.495358	842.309783	
2.446430	281.603190	394.470015	302.535106	842.454368	
2.448050	281.598080	394.654083	302.575672	842.601308	
2.449700	281.592840	394.842149	302.617061	842.750106	
2.451400	281.587480	395.035117	302.659780	842.903125	
2.453130	281.581990	395.232991	302.703331	843.058902	
2.454910	281.576360	395.435329	302.748223	843.217646	
2.456730	281.570590	395.643473	302.794211	843.380044	
2.458590	281.564670	395.856543	302.841301	843.545822	
2.460510	281.558590	396.075428	302.890005	843.715183	
2.462470	281.552350	396.300592	302.939825	843.887838	
2.464480	281.545930	396.532031	302.991023	844.065189	
2.466550	281.539330	396.769764	303.043861	844.245746	
2.468680	281.532550	397.015149	303.098350	844.431586	
2.470860	281.525570	397.267298	303.154243	844.621720	
2.473110	281.518380	397.527114	303.212064	844.816312	
2.475420	281.510980	397.795072	303.271568	845.015757	
2.477800	281.503350	398.071180	303.333024	845.219274	
2.480250	281.495490	398.355914	303.396447	845.428690	
2.482770	281.487390	398.649744	303.461850	845.642945	
2.485370	281.479020	398.953574	303.529508	845.863619	
2.488050	281.470380	399.267442	303.599438	846.089882	
2.490820	281.461460	399.592279	303.671921	846.321828	
2.493670	281.452230	399.928551	303.746713	846.560539	
2.496620	281.442670	400.277191	303.824363	846.806087	
2.499670	281.432780	400.638704	303.904893	847.059501	
2.502830	281.422530	401.014026	303.988595	847.319383	
2.506100	281.411900	401.404109	304.075498	847.587919	
2.509490	281.400860	401.809904	304.165899	847.865117	
2.513000	281.389390	402.231926	304.259833	848.149778	
2.516650	281.377460	402.671140	304.357874	848.444041	
2.520440	281.365040	403.128524	304.460065	848.747116	
2.524380	281.352110	403.605534	304.566721	849.059344	
2.528490	281.338610	404.104060	304.678436	849.382220	
2.532760	281.324520	404.625129	304.794996	849.716293	
2.537220	281.309800	405.170689	304.917285	850.061497	
2.541870	281.294390	405.742686	305.045375	850.419187	
2.546730	281.278250	406.342650	305.179898	850.789485	
2.551820	281.261320	406.973505	305.321497	851.173741	
2.557150	281.243540	407.636816	305.470556	851.571230	
2.562720	281.224890	408.334680	305.627185	851.983733	
2.568570	281.205290	409.069168	305.792637	852.410086	
2.574690	281.184680	409.844286	305.966769	852.853585	
2.581110	281.163000	410.662214	306.150593	853.312834	
2.587840	281.140180	411.525641	306.344570	853.788948	
2.594910	281.116170	412.436375	306.549763	854.280650	
2.602290	281.090970	413.396794	306.765511	854.789128	
2.609970	281.064670	414.401768	306.991738	855.309168	
2.617900	281.037400	415.446141	307.227175	855.837175	
2.626060	281.009220	416.528948	307.471410	856.371024	
2.634450	280.980130	417.648191	307.724628	856.908672	
2.643060	280.950130	418.808155	307.986709	857.452245	
2.651900	280.919200	420.007332	308.258155	857.997854	
2.660980	280.887300	421.247602	308.539478	858.547183	
2.670310	280.854350	422.532814	308.831208	859.099610	
2.679910	280.820320	423.865459	309.134215	859.654745	
2.689750	280.785210	425.246623	309.447805	860.211788	
2.699860	280.749010	426.676407	309.773202	860.769981	
2.710220	280.711710	428.150909	310.110036	861.325149	
2.720820	280.673320	429.669196	310.458243	861.874525	
2.731540	280.634310	431.219109	310.814102	862.414261	
2.742180	280.595380	432.774185	311.171059	862.936418	
2.752760	280.556440	434.335308	311.529744	863.440564	
2.763320	280.517400	435.909040	311.891495	863.929633	
2.773880	280.478140	437.498947	312.257014	864.404478	
2.784470	280.438580	439.107667	312.627387	864.865928	
2.795100	280.398640	440.743638	313.003027	865.317217	
2.805790	280.358290	442.397136	313.384743	865.751778	
2.816550	280.317410	444.077150	313.772971	866.173809	
2.827430	280.275900	445.785448	314.169644	866.582461	
2.838410	280.233760	447.527126	314.574176	866.979173	
2.849430	280.191230	449.293685	314.984485	867.363254	
2.860270	280.149180	451.042571	315.392382	867.722793	
2.870950	280.107530	452.779237	315.798431	868.060986	
2.881520	280.066090	454.512414	316.204391	868.380915	
2.892020	280.024720	456.244506	316.611712	868.682236	
2.902500	279.983220	457.987800	317.022286	868.969060	
2.912980	279.941510	459.740591	317.436909	869.239348	
2.923500	279.899410	461.506038	317.857188	869.492595	
2.934100	279.856810	463.298019	318.284784	869.733451	
2.944780	279.813640	465.112240	318.719812	869.959132	
2.955560	279.769850	466.951092	319.163197	870.168977	
2.966340	279.725810	468.795938	319.610909	870.360990	
2.976930	279.682380	470.611779	320.054978	870.533034	
2.987370	279.639330	472.405829	320.496864	870.684747	
2.997720	279.596450	474.189489	320.938944	870.818552	
3.008030	279.553520	475.974373	321.383267	870.938867	
3.018370	279.510230	477.770483	321.832837	871.043056	
3.028800	279.466400	479.584651	322.290317	871.133060	
3.039350	279.421880	481.420943	322.757129	871.208072	
3.050020	279.376600	483.281231	323.233395	871.267101	
3.060820	279.330540	485.170413	323.719695	871.310843	
3.071650	279.284150	487.065548	324.211637	871.338796	
3.082390	279.237960	488.943356	324.703741	871.350172	
3.093050	279.191860	490.808149	325.196335	871.344813	
3.103670	279.145720	492.672091	325.691172	871.325638	
3.114280	279.099450	494.530761	326.189612	871.290946	
3.124880	279.052970	496.386923	326.691612	871.241252	
3.135520	279.006120	498.246347	327.199525	871.192765	
3.146230	278.958780	500.114945	327.714816	871.143634	
3.157020	278.910830	501.995666	328.238028	871.079297	
3.167900	278.862320	503.887382	328.769713	870.999443	
3.178850	278.813240	505.791966	329.308951	870.905433	
3.189890	278.763550	507.713147	329.856795	870.796759	
3.201030	278.713220	509.647271	330.413827	870.672473	
3.212160	278.662680	511.575472	330.974582	870.533720	
3.223180	278.612450	513.482424	331.533935	870.382850	
3.234130	278.562310	515.369443	332.093779	870.217795	
3.245060	278.512040	517.243562	332.656564	870.039367	
