#Time [s]	Free Stream Temperature [K]	Boundary Layer Temperature [K]	Skin Temperature [K]	Convective Heat Transfer Coefficient [W/m^2-K]	
0.000000	285.269500	285.269500	285.269500	0.000000	
0.004000	285.269500	285.269500	285.269515	0.000000	
0.008000	285.269500	285.269500	285.269530	0.000000	
0.012000	285.269500	285.269500	285.269544	0.000000	
0.016000	285.269500	285.269500	285.269559	0.000000	
0.020000	285.269500	285.269500	285.269574	0.000000	
0.024000	285.269500	285.269500	285.269589	0.000000	
0.028000	285.269500	285.269500	285.269604	0.000000	
0.032000	285.269500	285.269500	285.269618	0.273478	
0.036000	285.269500	285.269501	285.269633	0.875853	
0.040000	285.269500	285.269503	285.269648	1.720105	
0.044000	285.269500	285.269514	285.269663	3.254523	
0.048000	285.269500	285.269557	285.269678	5.725968	
0.052000	285.269500	285.269677	285.269692	9.005854	
0.056000	285.269500	285.269978	285.269707	13.399047	
0.060000	285.269500	285.270614	285.269722	18.795136	
0.064000	285.269400	285.271673	285.269737	25.002271	
0.068000	285.269400	285.273576	285.269752	31.885296	
0.072000	285.269300	285.276348	285.269766	39.311476	
0.076000	285.269200	285.280066	285.269781	46.742721	
0.080000	285.269000	285.284686	285.269796	54.135395	
0.084000	285.268900	285.290409	285.269811	61.421011	
0.088000	285.268700	285.296988	285.269826	68.531404	
0.092000	285.268500	285.304526	285.269841	75.488908	
0.096000	285.268200	285.312871	285.269856	82.267966	
0.100000	285.268000	285.322204	285.269871	88.881874	
0.104000	285.267700	285.332276	285.269887	95.325478	
0.108000	285.267400	285.343129	285.269902	101.593679	
0.112000	285.267000	285.354635	285.269918	107.698411	
0.116000	285.266600	285.366858	285.269934	113.647586	
0.120000	285.266300	285.379869	285.269950	119.452019	
0.124000	285.265800	285.393331	285.269967	125.114399	
0.128000	285.265400	285.407507	285.269983	130.640868	
0.132000	285.265000	285.422274	285.270000	136.039978	
0.136000	285.264500	285.437551	285.270018	141.332513	
0.140000	285.264000	285.453423	285.270035	146.525676	
0.144000	285.263400	285.469796	285.270054	151.631187	
0.148000	285.262900	285.486884	285.270072	156.661137	
0.152000	285.262300	285.504472	285.270091	161.617833	
0.156000	285.261700	285.522661	285.270110	166.507611	
0.160000	285.261100	285.541437	285.270130	171.332192	
0.164000	285.260500	285.560799	285.270151	176.096344	
0.168000	285.259800	285.580645	285.270172	180.804103	
0.172000	285.259100	285.601079	285.270194	185.458296	
0.176000	285.258400	285.622151	285.270216	190.075952	
0.180000	285.257700	285.643868	285.270239	194.658898	
0.184000	285.256900	285.666071	285.270263	199.195240	
0.188000	285.256200	285.688890	285.270288	203.677875	
0.192000	285.255400	285.712117	285.270313	208.105513	
0.196000	285.254600	285.735882	285.270339	212.490255	
0.200000	285.253700	285.760084	285.270366	216.830847	
0.204000	285.252900	285.784939	285.270394	221.133840	
0.208000	285.252000	285.810274	285.270423	225.407468	
0.212000	285.251100	285.836180	285.270452	229.647851	
0.216000	285.250200	285.862652	285.270483	233.857427	
0.220000	285.249200	285.889586	285.270515	238.038784	
0.224000	285.248300	285.917182	285.270548	242.189190	
0.228000	285.247300	285.945238	285.270582	246.311665	
0.232000	285.246300	285.973841	285.270617	250.405246	
0.236000	285.245300	286.002946	285.270654	254.465133	
0.240000	285.244200	286.032439	285.270692	258.490997	
0.244000	285.243200	286.062561	285.270731	262.489559	
0.248000	285.242100	286.093167	285.270771	266.468576	
0.252000	285.241000	286.124342	285.270813	270.426921	
0.256000	285.239800	286.155955	285.270856	274.361208	
0.260000	285.238700	286.188184	285.270901	278.269826	
0.264000	285.237500	286.220888	285.270947	282.158111	
0.268000	285.236300	286.254216	285.270995	286.036388	
0.272000	285.235100	286.288157	285.271044	289.901265	
0.276000	285.233900	286.322642	285.271095	293.745519	
0.280000	285.232700	286.357647	285.271148	297.564771	
0.284000	285.231400	286.393075	285.271203	301.365019	
0.288000	285.230100	286.429034	285.271259	305.142668	
0.292000	285.228800	286.465516	285.271318	308.902348	
0.296000	285.227500	286.502565	285.271378	312.644029	
0.300000	285.226100	286.540081	285.271440	316.372921	
0.304000	285.224700	286.578157	285.271504	320.083721	
0.308000	285.223300	286.616792	285.271571	323.781684	
0.312000	285.221900	286.655981	285.271639	327.461445	
0.316000	285.220500	286.695737	285.271710	331.127086	
0.320000	285.219000	286.735955	285.271783	334.781061	
0.326000	285.216800	286.797362	285.271895	340.228307	
0.335000	285.213400	286.891610	285.272073	348.334802	
0.348500	285.208100	287.037474	285.272357	360.318768	
0.368500	285.199800	287.264024	285.272823	377.757596	
0.388500	285.191100	287.503873	285.273360	394.898484	
0.408500	285.181800	287.756962	285.273977	411.761990	
0.428500	285.172000	288.022062	285.274680	428.289942	
0.448500	285.161700	288.300019	285.275479	444.547338	
0.468500	285.151000	288.590502	285.276381	460.531573	
0.488500	285.139700	288.894178	285.277395	476.296475	
0.508500	285.128000	289.210562	285.278530	491.811911	
0.528500	285.115700	289.541023	285.279795	507.164478	
0.548500	285.103000	289.884920	285.281200	522.313424	
0.568500	285.089800	290.242317	285.282755	537.269169	
0.588500	285.076000	290.613134	285.284470	552.035105	
0.608500	285.061800	290.997082	285.286356	566.600148	
0.628500	285.047100	291.395818	285.288423	581.020331	
0.648500	285.031900	291.807094	285.290682	595.222178	
0.668500	285.016200	292.233745	285.293145	609.300913	
0.688500	285.000000	292.674337	285.295824	623.212544	
0.708500	284.983300	293.127719	285.298730	636.914367	
0.728500	284.966100	293.595175	285.301875	650.456456	
0.748500	284.948500	294.075469	285.305272	663.792622	
0.768500	284.930300	294.569634	285.308931	676.969093	
0.788500	284.911600	295.076878	285.312867	689.958669	
0.808500	284.892400	295.596894	285.317090	702.751063	
0.828500	284.872800	296.127765	285.321613	715.314601	
0.848500	284.852600	296.670817	285.326448	727.685357	
0.868500	284.831900	297.225338	285.331607	739.849683	
0.888500	284.810800	297.789799	285.337101	751.781132	
0.908500	284.789200	298.366334	285.342941	763.528947	
0.928500	284.767100	298.956612	285.349139	775.129500	
0.948500	284.744500	299.558269	285.355710	786.538969	
0.968500	284.721400	300.172844	285.362664	797.788583	
0.988500	284.697800	300.801341	285.370015	808.896519	
1.008500	284.673700	301.441938	285.377777	819.831185	
1.028500	284.649200	302.094158	285.385963	830.586831	
1.048500	284.624200	302.759062	285.394585	841.183397	
1.068500	284.598700	303.437183	285.403655	851.630713	
1.088500	284.572700	304.127798	285.413189	861.918705	
1.108500	284.546200	304.831640	285.423198	872.058375	
1.128500	284.519200	305.548917	285.433696	882.054401	
1.148500	284.491700	306.281413	285.444699	891.929127	
1.168500	284.463800	307.026768	285.456219	901.649674	
1.188500	284.435400	307.786890	285.468273	911.242269	
1.208500	284.406500	308.561046	285.480873	920.696995	
1.228500	284.377000	309.349604	285.494035	930.018537	
1.248500	284.347100	310.151771	285.507775	939.195522	
1.268500	284.316800	310.967782	285.522104	948.231066	
1.288500	284.285900	311.798340	285.537040	957.135475	
1.308500	284.254500	312.646508	285.552596	965.937907	
1.328500	284.222600	313.505711	285.568789	974.570259	
1.348500	284.190300	314.381907	285.585633	983.091515	
1.368500	284.157400	315.274361	285.603143	991.496434	
1.388500	284.124000	316.180705	285.621337	999.758440	
1.408500	284.090200	317.102975	285.640229	1007.897672	
1.428500	284.055800	318.040341	285.659835	1015.906669	
1.448500	284.021000	318.993815	285.680170	1023.791686	
1.468500	283.985600	319.963799	285.701251	1031.558938	
1.488500	283.949800	320.949090	285.723095	1039.193599	
1.508500	283.913400	321.950064	285.745716	1046.703058	
1.528500	283.876600	322.967783	285.769131	1054.090654	
1.548500	283.839200	324.000309	285.793356	1061.345303	
1.568500	283.801300	325.050995	285.818406	1068.490121	
1.588500	283.763000	326.122007	285.844300	1075.536683	
1.608500	283.724100	327.209259	285.871056	1082.457381	
1.628500	283.684700	328.312376	285.898692	1089.249954	
1.648500	283.644800	329.432545	285.927221	1095.921275	
1.668500	283.604400	330.573013	285.956662	1102.491536	
1.688500	283.563400	331.732164	285.987033	1108.948476	
1.708500	283.522000	332.915630	286.018353	1115.323396	
1.728500	283.480000	334.119410	286.050644	1121.591478	
1.748500	283.437500	335.342005	286.083925	1127.742766	
1.768500	283.394500	336.582334	286.118214	1133.771347	
1.788500	283.350900	337.842545	286.153529	1139.689815	
1.808500	283.306800	339.126644	286.189887	1145.514391	
1.828500	283.262200	340.432728	286.227311	1151.234812	
1.848500	283.217100	341.761025	286.265822	1156.850894	
1.868500	283.171400	343.114243	286.305439	1162.374056	
1.888500	283.125140	344.489804	286.346185	1167.789931	
1.908500	283.078370	345.888966	286.388080	1173.103531	
1.928500	283.031040	347.315607	286.431147	1178.329533	
1.948500	282.983160	348.765724	286.475410	1183.449809	
1.968500	282.934730	350.234767	286.520889	1188.445415	
1.988500	282.885750	351.729372	286.567602	1193.341560	
2.008500	282.836210	353.257156	286.615571	1198.165978	
2.028500	282.786100	354.811936	286.664827	1202.890888	
2.048310	282.735920	356.380595	286.714911	1207.480013	
2.066750	282.688690	357.868529	286.762750	1211.675337	
2.083920	282.644270	359.274326	286.808372	1215.501939	
2.099650	282.603220	360.577696	286.851101	1218.934073	
2.114230	282.564840	361.804128	286.891507	1222.068598	
2.127920	282.528530	362.969886	286.930155	1224.964257	
2.140820	282.494050	364.081753	286.967208	1227.651813	
2.153020	282.461220	365.145004	287.002823	1230.157498	
2.164580	282.429910	366.162929	287.037088	1232.498507	
2.175550	282.400010	367.138238	287.070076	1234.688766	
2.185970	282.371440	368.072653	287.101839	1236.740217	
2.195890	282.344110	368.972636	287.132469	1238.676179	
2.205310	282.318010	369.834799	287.161913	1240.492817	
2.214260	282.293060	370.660355	287.190213	1242.197208	
2.222730	282.269380	371.445287	287.217291	1243.788284	
2.230710	282.246950	372.191716	287.243067	1245.274478	
2.238280	282.225580	372.904445	287.267757	1246.670675	
2.245490	282.205160	373.586881	287.291489	1247.985049	
2.252370	282.185590	374.241726	287.314334	1249.226531	
2.258950	282.166800	374.874175	287.336364	1250.409228	
2.265260	282.148740	375.483509	287.357658	1251.533864	
2.271300	282.131360	376.070627	287.378196	1252.618516	
2.277120	282.114600	376.636444	287.398131	1253.649475	
2.282710	282.098440	377.183963	287.417411	1254.634207	
2.288090	282.082830	377.713360	287.436091	1255.574723	
2.293270	282.067750	378.226480	287.454193	1256.476499	
2.298270	282.053180	378.723971	287.471774	1257.341128	
2.303090	282.039090	379.205257	287.488823	1258.168542	
2.307740	282.025470	379.671423	287.505366	1258.961086	
2.312220	282.012280	380.123130	287.521391	1259.721246	
2.316560	281.999500	380.561483	287.536999	1260.451216	
2.320750	281.987130	380.987207	287.552145	1261.154342	
2.324810	281.975140	381.399768	287.566894	1261.828178	
2.328720	281.963530	381.799903	287.581165	1262.475998	
2.332520	281.952260	382.187905	287.595100	1263.099166	
2.336190	281.941330	382.564945	287.608618	1263.698511	
2.339740	281.930730	382.931363	287.621750	1264.277400	
2.343180	281.920450	383.287083	287.634528	1264.834052	
2.346510	281.910500	383.631635	287.646948	1265.369013	
2.349720	281.900860	383.965355	287.658967	1265.883476	
2.352830	281.891520	384.289437	287.670655	1266.379185	
2.355850	281.882450	384.604219	287.682046	1266.857276	
2.358770	281.873660	384.910088	287.693099	1267.317733	
2.361600	281.865110	385.207381	287.703847	1267.763808	
2.364350	281.856800	385.497326	287.714327	1268.194952	
2.367020	281.848720	385.779033	287.724533	1268.611869	
2.369620	281.840850	386.054140	287.734503	1269.016960	
2.372140	281.833190	386.321770	287.744196	1269.407673	
2.374600	281.825730	386.583156	287.753685	1269.787687	
2.376990	281.818450	386.837827	287.762931	1270.155278	
2.379320	281.811360	387.086192	287.771970	1270.511372	
2.381590	281.804440	387.329061	287.780799	1270.858803	
2.383800	281.797680	387.565975	287.789418	1271.194736	
2.385960	281.791080	387.797340	287.797863	1271.522233	
2.388060	281.784640	388.023564	287.806094	1271.840034	
2.390120	281.778340	388.244609	287.814188	1272.149336	
2.392130	281.772190	388.460897	287.822104	1272.449925	
2.394090	281.766170	388.672820	287.829841	1272.743777	
2.396000	281.760280	388.879936	287.837398	1273.029096	
2.397880	281.754520	389.083088	287.844853	1273.307527	
2.399710	281.748880	389.281825	287.852124	1273.579445	
2.401500	281.743360	389.476133	287.859252	1273.843832	
2.403250	281.737960	389.667293	287.866235	1274.103095	
2.404970	281.732660	389.854412	287.873112	1274.354669	
2.406640	281.727480	390.037498	287.879802	1274.600744	
2.408290	281.722390	390.217377	287.886425	1274.841886	
2.409900	281.717410	390.394058	287.892899	1275.077027	
2.411470	281.712530	390.567091	287.899225	1275.306533	
2.413020	281.707740	390.736889	287.905480	1275.531235	
2.414530	281.703040	390.903878	287.911586	1275.751942	
2.416010	281.698430	391.067183	287.917580	1275.966069	
2.417470	281.693910	391.228098	287.923503	1276.177042	
2.418900	281.689470	391.385738	287.929315	1276.382289	
2.420300	281.685120	391.540540	287.935013	1276.583679	
2.421670	281.680840	391.692914	287.940599	1276.780952	
2.423020	281.676640	391.842427	287.946111	1276.973356	
2.424340	281.672510	391.989500	287.951509	1277.162783	
2.425640	281.668460	392.133702	287.956834	1277.347399	
2.426910	281.664470	392.275879	287.962043	1277.528775	
2.428170	281.660560	392.415173	287.967219	1277.706477	
2.429400	281.656710	392.552432	287.972279	1277.880986	
2.430670	281.652720	392.694450	287.977511	1278.060314	
2.431970	281.648660	392.839555	287.982874	1278.243486	
2.433290	281.644520	392.987305	287.988327	1278.429736	
2.434640	281.640300	393.138582	287.993913	1278.619453	
2.436010	281.635990	393.292506	287.999591	1278.811123	
2.437410	281.631600	393.449970	288.005401	1279.007288	
2.438830	281.627110	393.610523	288.011304	1279.207199	
2.440290	281.622530	393.775059	288.017384	1279.410121	
2.441780	281.617850	393.943138	288.023598	1279.617466	
2.443290	281.613070	394.114768	288.029907	1279.828110	
2.444840	281.608190	394.290397	288.036393	1280.042754	
2.446430	281.603190	394.470015	288.043059	1280.262477	
2.448050	281.598080	394.654083	288.049863	1280.485780	
2.449700	281.592840	394.842149	288.056806	1280.711906	
2.451400	281.587480	395.035117	288.063972	1280.944445	
2.453130	281.581990	395.232991	288.071279	1281.181176	
2.454910	281.576360	395.435329	288.078812	1281.422418	
2.456730	281.570590	395.643473	288.086530	1281.669211	
2.458590	281.564670	395.856543	288.094433	1281.921140	
2.460510	281.558590	396.075428	288.102609	1282.178516	
2.462470	281.552350	396.300592	288.110972	1282.440896	
2.464480	281.545930	396.532031	288.119569	1282.710414	
2.466550	281.539330	396.769764	288.128441	1282.984802	
2.468680	281.532550	397.015149	288.137593	1283.267220	
2.470860	281.525570	397.267298	288.146981	1283.556163	
2.473110	281.518380	397.527114	288.156695	1283.851880	
2.475420	281.510980	397.795072	288.166693	1284.154974	
2.477800	281.503350	398.071180	288.177020	1284.464255	
2.480250	281.495490	398.355914	288.187680	1284.782500	
2.482770	281.487390	398.649744	288.198674	1285.108100	
2.485370	281.479020	398.953574	288.210049	1285.443454	
2.488050	281.470380	399.267442	288.221809	1285.787303	
2.490820	281.461460	399.592279	288.233999	1286.139786	
2.493670	281.452230	399.928551	288.246581	1286.502551	
2.496620	281.442670	400.277191	288.259645	1286.875706	
2.499670	281.432780	400.638704	288.273197	1287.260815	
2.502830	281.422530	401.014026	288.287285	1287.655752	
2.506100	281.411900	401.404109	288.301915	1288.063842	
2.509490	281.400860	401.809904	288.317137	1288.485094	
2.513000	281.389390	402.231926	288.332957	1288.917689	
2.516650	281.377460	402.671140	288.349473	1289.364874	
2.520440	281.365040	403.128524	288.366692	1289.825452	
2.524380	281.352110	403.605534	288.384668	1290.299939	
2.528490	281.338610	404.104060	288.403501	1290.790608	
2.532760	281.324520	404.625129	288.423156	1291.298292	
2.537220	281.309800	405.170689	288.443783	1291.822893	
2.541870	281.294390	405.742686	288.465395	1292.366468	
2.546730	281.278250	406.342650	288.488098	1292.929202	
2.551820	281.261320	406.973505	288.512003	1293.513150	
2.557150	281.243540	407.636816	288.537175	1294.117206	
2.562720	281.224890	408.334680	288.563635	1294.744079	
2.568570	281.205290	409.069168	288.591595	1295.392001	
2.574690	281.184680	409.844286	288.621033	1296.065978	
2.581110	281.163000	410.662214	288.652121	1296.763889	
2.587840	281.140180	411.525641	288.684939	1297.487431	
2.594910	281.116170	412.436375	288.719668	1298.234662	
2.602290	281.090970	413.396794	288.756200	1299.007386	
2.609970	281.064670	414.401768	288.794524	1299.797682	
2.617900	281.037400	415.446141	288.834426	1300.600084	
2.626060	281.009220	416.528948	288.875838	1301.411365	
2.634450	280.980130	417.648191	288.918795	1302.228419	
2.643060	280.950130	418.808155	288.963278	1303.054477	
2.651900	280.919200	420.007332	289.009373	1303.883629	
2.660980	280.887300	421.247602	289.057171	1304.718434	
2.670310	280.854350	422.532814	289.106763	1305.557947	
2.679910	280.820320	423.865459	289.158299	1306.401576	
2.689750	280.785210	425.246623	289.211666	1307.248104	
2.699860	280.749010	426.676407	289.267073	1308.096380	
2.710220	280.711710	428.150909	289.324460	1308.940058	
2.720820	280.673320	429.669196	289.383820	1309.774935	
2.731540	280.634310	431.219109	289.444522	1310.595162	
2.742180	280.595380	432.774185	289.505447	1311.388674	
2.752760	280.556440	434.335308	289.566704	1312.154815	
2.763320	280.517400	435.909040	289.628522	1312.898044	
2.773880	280.478140	437.498947	289.691019	1313.619659	
2.784470	280.438580	439.107667	289.754383	1314.320915	
2.795100	280.398640	440.743638	289.818685	1315.006731	
2.805790	280.358290	442.397136	289.884065	1315.667126	
2.816550	280.317410	444.077150	289.950598	1316.308478	
2.827430	280.275900	445.785448	290.018617	1316.929499	
2.838410	280.233760	447.527126	290.088024	1317.532375	
2.849430	280.191230	449.293685	290.158464	1318.116057	
2.860270	280.149180	451.042571	290.228530	1318.662441	
2.870950	280.107530	452.779237	290.298319	1319.176386	
2.881520	280.066090	454.512414	290.368132	1319.662577	
2.892020	280.024720	456.244506	290.438218	1320.120488	
2.902500	279.983220	457.987800	290.508902	1320.556370	
2.912980	279.941510	459.740591	290.580323	1320.967121	
2.923500	279.899410	461.506038	290.652759	1321.351977	
2.934100	279.856810	463.298019	290.726496	1321.718001	
2.944780	279.813640	465.112240	290.801558	1322.060965	
2.955560	279.769850	466.951092	290.878106	1322.379862	
2.966340	279.725810	468.795938	290.955446	1322.671660	
2.976930	279.682380	470.611779	291.032202	1322.933113	
2.987370	279.639330	472.405829	291.108625	1323.163668	
2.997720	279.596450	474.189489	291.185127	1323.367010	
3.008030	279.553520	475.974373	291.262063	1323.549850	
3.018370	279.510230	477.770483	291.339953	1323.708183	
3.028800	279.466400	479.584651	291.419261	1323.844961	
3.039350	279.421880	481.420943	291.500236	1323.958956	
3.050020	279.376600	483.281231	291.582902	1324.048661	
3.060820	279.330540	485.170413	291.667365	1324.115135	
3.071650	279.284150	487.065548	291.752863	1324.157614	
3.082390	279.237960	488.943356	291.838446	1324.174902	
3.093050	279.191860	490.808149	291.924172	1324.166759	
3.103670	279.145720	492.672091	292.010346	1324.137618	
3.114280	279.099450	494.530761	292.097206	1324.084898	
3.124880	279.052970	496.386923	292.184747	1324.009378	
3.135520	279.006120	498.246347	292.273381	1323.935694	
3.146230	278.958780	500.114945	292.363366	1323.861030	
3.157020	278.910830	501.995666	292.454800	1323.763259	
3.167900	278.862320	503.887382	292.547784	1323.641906	
3.178850	278.813240	505.791966	292.642160	1323.499040	
3.189890	278.763550	507.713147	292.738117	1323.333890	
3.201030	278.713220	509.647271	292.835759	1323.145016	
