#Time [s]	Free Stream Temperature [K]	Boundary Layer Temperature [K]	Skin Temperature [K]	Convective Heat Transfer Coefficient [W/m^2-K]	
0.000000	285.269500	285.269500	285.269500	0.000000	
0.004000	285.269500	285.269500	285.269552	0.000000	
0.008000	285.269500	285.269500	285.269605	0.000000	
0.012000	285.269500	285.269500	285.269657	0.000000	
0.016000	285.269500	285.269500	285.269710	0.000000	
0.020000	285.269500	285.269500	285.269762	0.000000	
0.024000	285.269500	285.269500	285.269815	0.000000	
0.028000	285.269500	285.269500	285.269867	0.000000	
0.032000	285.269500	285.269500	285.269919	0.383334	
0.036000	285.269500	285.269501	285.269972	1.227684	
0.040000	285.269500	285.269503	285.270024	2.411072	
0.044000	285.269500	285.269514	285.270077	4.561865	
0.048000	285.269500	285.269557	285.270129	8.026091	
0.052000	285.269500	285.269677	285.270181	12.623508	
0.056000	285.269500	285.269978	285.270234	18.781448	
0.060000	285.269500	285.270614	285.270286	26.345148	
0.064000	285.269400	285.271673	285.270339	35.045691	
0.068000	285.269400	285.273576	285.270391	44.693630	
0.072000	285.269300	285.276348	285.270444	55.102908	
0.076000	285.269200	285.280066	285.270496	65.519286	
0.080000	285.269000	285.284686	285.270549	75.881600	
0.084000	285.268900	285.290409	285.270602	86.093850	
0.088000	285.268700	285.296988	285.270655	96.060490	
0.092000	285.268500	285.304526	285.270709	105.812826	
0.096000	285.268200	285.312871	285.270763	115.315033	
0.100000	285.268000	285.322204	285.270817	124.585751	
0.104000	285.267700	285.332276	285.270872	133.617752	
0.108000	285.267400	285.343129	285.270928	142.403891	
0.112000	285.267000	285.354635	285.270985	150.960896	
0.116000	285.266600	285.366858	285.271043	159.299857	
0.120000	285.266300	285.379869	285.271102	167.435932	
0.124000	285.265800	285.393331	285.271163	175.372891	
0.128000	285.265400	285.407507	285.271224	183.119346	
0.132000	285.265000	285.422274	285.271288	190.687279	
0.136000	285.264500	285.437551	285.271353	198.105827	
0.140000	285.264000	285.453423	285.271419	205.385086	
0.144000	285.263400	285.469796	285.271488	212.541482	
0.148000	285.262900	285.486884	285.271559	219.591964	
0.152000	285.262300	285.504472	285.271632	226.539767	
0.156000	285.261700	285.522661	285.271707	233.393771	
0.160000	285.261100	285.541437	285.271785	240.156387	
0.164000	285.260500	285.560799	285.271866	246.834300	
0.168000	285.259800	285.580645	285.271950	253.433168	
0.172000	285.259100	285.601079	285.272036	259.956952	
0.176000	285.258400	285.622151	285.272126	266.429521	
0.180000	285.257700	285.643868	285.272219	272.853438	
0.184000	285.256900	285.666071	285.272316	279.212030	
0.188000	285.256200	285.688890	285.272416	285.495340	
0.192000	285.255400	285.712117	285.272520	291.701562	
0.196000	285.254600	285.735882	285.272629	297.847656	
0.200000	285.253700	285.760084	285.272741	303.931865	
0.204000	285.252900	285.784939	285.272858	309.963372	
0.208000	285.252000	285.810274	285.272980	315.953718	
0.212000	285.251100	285.836180	285.273106	321.897464	
0.216000	285.250200	285.862652	285.273238	327.798029	
0.220000	285.249200	285.889586	285.273375	333.659038	
0.224000	285.248300	285.917182	285.273517	339.476663	
0.228000	285.247300	285.945238	285.273664	345.255138	
0.232000	285.246300	285.973841	285.273818	350.993111	
0.236000	285.245300	286.002946	285.273977	356.683856	
0.240000	285.244200	286.032439	285.274143	362.326911	
0.244000	285.243200	286.062561	285.274316	367.931696	
0.248000	285.242100	286.093167	285.274494	373.509085	
0.252000	285.241000	286.124342	285.274680	379.057499	
0.256000	285.239800	286.155955	285.274873	384.572190	
0.260000	285.238700	286.188184	285.275073	390.050901	
0.264000	285.237500	286.220888	285.275281	395.501112	
0.268000	285.236300	286.254216	285.275497	400.937294	
0.272000	285.235100	286.288157	285.275720	406.354693	
0.276000	285.233900	286.322642	285.275952	411.743185	
0.280000	285.232700	286.357647	285.276193	417.096632	
0.284000	285.231400	286.393075	285.276442	422.423441	
0.288000	285.230100	286.429034	285.276700	427.718572	
0.292000	285.228800	286.465516	285.276967	432.988517	
0.296000	285.227500	286.502565	285.277244	438.233232	
0.300000	285.226100	286.540081	285.277531	443.460022	
0.304000	285.224700	286.578157	285.277828	448.661451	
0.308000	285.223300	286.616792	285.278134	453.844887	
0.312000	285.221900	286.655981	285.278452	459.002809	
0.316000	285.220500	286.695737	285.278780	464.140940	
0.320000	285.219000	286.735955	285.279119	469.262717	
0.326000	285.216800	286.797362	285.279645	476.898124	
0.335000	285.213400	286.891610	285.280474	488.261001	
0.348500	285.208100	287.037474	285.281809	505.058929	
0.368500	285.199800	287.264024	285.284005	529.502940	
0.388500	285.191100	287.503873	285.286553	553.529328	
0.408500	285.181800	287.756962	285.289492	577.166910	
0.428500	285.172000	288.022062	285.292860	600.334144	
0.448500	285.161700	288.300019	285.296696	623.122141	
0.468500	285.151000	288.590502	285.301040	645.527249	
0.488500	285.139700	288.894178	285.305933	667.624918	
0.508500	285.128000	289.210562	285.311420	689.372909	
0.528500	285.115700	289.541023	285.317545	710.892607	
0.548500	285.103000	289.884920	285.324355	732.126889	
0.568500	285.089800	290.242317	285.331900	753.090361	
0.588500	285.076000	290.613134	285.340227	773.787778	
0.608500	285.061800	290.997082	285.349388	794.203604	
0.628500	285.047100	291.395818	285.359433	814.416379	
0.648500	285.031900	291.807094	285.370418	834.323112	
0.668500	285.016200	292.233745	285.382393	854.057279	
0.688500	285.000000	292.674337	285.395417	873.557216	
0.708500	284.983300	293.127719	285.409548	892.763066	
0.728500	284.966100	293.595175	285.424839	911.745017	
0.748500	284.948500	294.075469	285.441348	930.438324	
0.768500	284.930300	294.569634	285.459132	948.907789	
0.788500	284.911600	295.076878	285.478250	967.115280	
0.808500	284.892400	295.596894	285.498759	985.046383	
0.828500	284.872800	296.127765	285.520717	1002.656698	
0.848500	284.852600	296.670817	285.544175	1019.996791	
0.868500	284.831900	297.225338	285.569191	1037.047531	
0.888500	284.810800	297.789799	285.595818	1053.771846	
0.908500	284.789200	298.366334	285.624107	1070.238763	
0.928500	284.767100	298.956612	285.654113	1086.499261	
0.948500	284.744500	299.558269	285.685899	1102.491917	
0.968500	284.721400	300.172844	285.719519	1118.260505	
0.988500	284.697800	300.801341	285.755033	1133.830502	
1.008500	284.673700	301.441938	285.792505	1149.157627	
1.028500	284.649200	302.094158	285.831992	1164.233819	
1.048500	284.624200	302.759062	285.873548	1179.087029	
1.068500	284.598700	303.437183	285.917235	1193.731036	
1.088500	284.572700	304.127798	285.963113	1208.151717	
1.108500	284.546200	304.831640	286.011242	1222.364496	
1.128500	284.519200	305.548917	286.061681	1236.375928	
1.148500	284.491700	306.281413	286.114494	1250.217335	
1.168500	284.463800	307.026768	286.169748	1263.842629	
1.188500	284.435400	307.786890	286.227505	1277.288572	
1.208500	284.406500	308.561046	286.287829	1290.541264	
1.228500	284.377000	309.349604	286.350787	1303.607272	
1.248500	284.347100	310.151771	286.416442	1316.470655	
1.268500	284.316800	310.967782	286.484857	1329.135779	
1.288500	284.285900	311.798340	286.556095	1341.617093	
1.308500	284.254500	312.646508	286.630222	1353.955465	
1.328500	284.222600	313.505711	286.707314	1366.055434	
1.348500	284.190300	314.381907	286.787422	1377.999683	
1.368500	284.157400	315.274361	286.870622	1389.780859	
1.388500	284.124000	316.180705	286.956984	1401.361716	
1.408500	284.090200	317.102975	287.046570	1412.770480	
1.428500	284.055800	318.040341	287.139448	1423.996693	
1.448500	284.021000	318.993815	287.235686	1435.049125	
1.468500	283.985600	319.963799	287.335351	1445.936484	
1.488500	283.949800	320.949090	287.438516	1456.637990	
1.508500	283.913400	321.950064	287.545245	1467.164002	
1.528500	283.876600	322.967783	287.655605	1477.519197	
1.548500	283.839200	324.000309	287.769666	1487.688041	
1.568500	283.801300	325.050995	287.887490	1497.702935	
1.588500	283.763000	326.122007	288.009154	1507.580102	
1.608500	283.724100	327.209259	288.134739	1517.280848	
1.628500	283.684700	328.312376	288.264314	1526.801999	
1.648500	283.644800	329.432545	288.397942	1536.153192	
1.668500	283.604400	330.573013	288.535692	1545.362729	
1.688500	283.563400	331.732164	288.677647	1554.413423	
1.708500	283.522000	332.915630	288.823880	1563.349150	
1.728500	283.480000	334.119410	288.974489	1572.135123	
1.748500	283.437500	335.342005	289.129554	1580.757386	
1.768500	283.394500	336.582334	289.289149	1589.207649	
1.788500	283.350900	337.842545	289.453342	1597.503568	
1.808500	283.306800	339.126644	289.622209	1605.667877	
1.828500	283.262200	340.432728	289.795844	1613.686194	
1.848500	283.217100	341.761025	289.974331	1621.558258	
1.868500	283.171400	343.114243	290.157753	1629.300076	
1.888500	283.125140	344.489804	290.346208	1636.891510	
1.908500	283.078370	345.888966	290.539777	1644.339584	
1.928500	283.031040	347.315607	290.738550	1651.664873	
1.948500	282.983160	348.765724	290.942630	1658.841965	
1.968500	282.934730	350.234767	291.152105	1665.844307	
1.988500	282.885750	351.729372	291.367039	1672.707235	
2.008500	282.836210	353.257156	291.587527	1679.469624	
2.028500	282.786100	354.811936	291.813693	1686.092531	
2.048310	282.735920	356.380595	292.043434	1692.525109	
2.066750	282.688690	357.868529	292.262658	1698.405697	
2.083920	282.644270	359.274326	292.471527	1703.769446	
2.099650	282.603220	360.577696	292.666980	1708.580269	
2.114230	282.564840	361.804128	292.851666	1712.973934	
2.127920	282.528530	362.969886	293.028187	1717.032780	
2.140820	282.494050	364.081753	293.197305	1720.799928	
2.153020	282.461220	365.145004	293.359755	1724.312148	
2.164580	282.429910	366.162929	293.515956	1727.593541	
2.175550	282.400010	367.138238	293.666247	1730.663627	
2.185970	282.371440	368.072653	293.810879	1733.539147	
2.195890	282.344110	368.972636	293.950280	1736.252786	
2.205310	282.318010	369.834799	294.084219	1738.799167	
2.214260	282.293060	370.660355	294.212897	1741.188213	
2.222730	282.269380	371.445287	294.335963	1743.418424	
2.230710	282.246950	372.191716	294.453061	1745.501623	
2.238280	282.225580	372.904445	294.565183	1747.458673	
2.245490	282.205160	373.586881	294.672917	1749.301031	
2.252370	282.185590	374.241726	294.776583	1751.041217	
2.258950	282.166800	374.874175	294.876520	1752.699003	
2.265260	282.148740	375.483509	294.973089	1754.275406	
2.271300	282.131360	376.070627	295.066201	1755.795763	
2.277120	282.114600	376.636444	295.156551	1757.240858	
2.282710	282.098440	377.183963	295.243910	1758.621158	
2.288090	282.082830	377.713360	295.328528	1759.939479	
2.293270	282.067750	378.226480	295.410504	1761.203499	
2.298270	282.053180	378.723971	295.490102	1762.415450	
2.303090	282.039090	379.205257	295.567275	1763.575236	
2.307740	282.025470	379.671423	295.642136	1764.686146	
2.312220	282.012280	380.123130	295.714643	1765.751662	
2.316560	281.999500	380.561483	295.785243	1766.774861	
2.320750	281.987130	380.987207	295.853740	1767.760433	
2.324810	281.975140	381.399768	295.920428	1768.704949	
2.328720	281.963530	381.799903	295.984947	1769.612999	
2.332520	281.952260	382.187905	296.047930	1770.486493	
2.336190	281.941330	382.564945	296.109018	1771.326596	
2.339740	281.930730	382.931363	296.168353	1772.138025	
2.343180	281.920450	383.287083	296.226081	1772.918284	
2.346510	281.910500	383.631635	296.282178	1773.668139	
2.349720	281.900860	383.965355	296.336457	1774.389262	
2.352830	281.891520	384.289437	296.389234	1775.084097	
2.355850	281.882450	384.604219	296.440662	1775.754238	
2.358770	281.873660	384.910088	296.490555	1776.399660	
2.361600	281.865110	385.207381	296.539068	1777.024924	
2.364350	281.856800	385.497326	296.586359	1777.629259	
2.367020	281.848720	385.779033	296.632415	1778.213651	
2.369620	281.840850	386.054140	296.677398	1778.781467	
2.372140	281.833190	386.321770	296.721122	1779.329130	
2.374600	281.825730	386.583156	296.763926	1779.861795	
2.376990	281.818450	386.837827	296.805626	1780.377049	
2.379320	281.811360	387.086192	296.846386	1780.876185	
2.381590	281.804440	387.329061	296.886200	1781.363179	
2.383800	281.797680	387.565975	296.925059	1781.834056	
2.385960	281.791080	387.797340	296.963133	1782.293110	
2.388060	281.784640	388.023564	297.000237	1782.738571	
2.390120	281.778340	388.244609	297.036719	1783.172120	
2.392130	281.772190	388.460897	297.072396	1783.593455	
2.394090	281.766170	388.672820	297.107264	1784.005347	
2.396000	281.760280	388.879936	297.141315	1784.405279	
2.397880	281.754520	389.083088	297.174902	1784.795557	
2.399710	281.748880	389.281825	297.207663	1785.176703	
2.401500	281.743360	389.476133	297.239773	1785.547296	
2.403250	281.737960	389.667293	297.271228	1785.910705	
2.404970	281.732660	389.854412	297.302203	1786.263336	
2.406640	281.727480	390.037498	297.332334	1786.608259	
2.408290	281.722390	390.217377	297.362159	1786.946268	
2.409900	281.717410	390.394058	297.391314	1787.275865	
2.411470	281.712530	390.567091	297.419795	1787.597563	
2.413020	281.707740	390.736889	297.447961	1787.912528	
2.414530	281.703040	390.903878	297.475448	1788.221893	
2.416010	281.698430	391.067183	297.502433	1788.522035	
2.417470	281.693910	391.228098	297.529097	1788.817756	
2.418900	281.689470	391.385738	297.555255	1789.105450	
2.420300	281.685120	391.540540	297.580904	1789.387740	
2.421670	281.680840	391.692914	297.606041	1789.664257	
2.423020	281.676640	391.842427	297.630850	1789.933951	
2.424340	281.672510	391.989500	297.655142	1790.199470	
2.425640	281.668460	392.133702	297.679102	1790.458246	
2.426910	281.664470	392.275879	297.702541	1790.712480	
2.428170	281.660560	392.415173	297.725829	1790.961566	
2.429400	281.656710	392.552432	297.748593	1791.206175	
2.430670	281.652720	392.694450	297.772129	1791.457540	
2.431970	281.648660	392.839555	297.796255	1791.714291	
2.433290	281.644520	392.987305	297.820786	1791.975358	
2.434640	281.640300	393.138582	297.845911	1792.241285	
2.436010	281.635990	393.292506	297.871446	1792.509949	
2.437410	281.631600	393.449970	297.897579	1792.784913	
2.438830	281.627110	393.610523	297.924126	1793.065128	
2.440290	281.622530	393.775059	297.951463	1793.349565	
2.441780	281.617850	393.943138	297.979407	1793.640200	
2.443290	281.613070	394.114768	298.007771	1793.935459	
2.444840	281.608190	394.290397	298.036935	1794.236326	
2.446430	281.603190	394.470015	298.066902	1794.544312	
2.448050	281.598080	394.654083	298.097488	1794.857315	
2.449700	281.592840	394.842149	298.128694	1795.174277	
2.451400	281.587480	395.035117	298.160905	1795.500227	
2.453130	281.581990	395.232991	298.193744	1795.832053	
2.454910	281.576360	395.435329	298.227596	1796.170202	
2.456730	281.570590	395.643473	298.262275	1796.516132	
2.458590	281.564670	395.856543	298.297787	1796.869260	
2.460510	281.558590	396.075428	298.334518	1797.230024	
2.462470	281.552350	396.300592	298.372091	1797.597802	
2.464480	281.545930	396.532031	298.410706	1797.975586	
2.466550	281.539330	396.769764	298.450559	1798.360196	
2.468680	281.532550	397.015149	298.491659	1798.756061	
2.470860	281.525570	397.267298	298.533820	1799.161072	
2.473110	281.518380	397.527114	298.577438	1799.575580	
2.475420	281.510980	397.795072	298.622327	1800.000426	
2.477800	281.503350	398.071180	298.668691	1800.433946	
2.480250	281.495490	398.355914	298.716542	1800.880029	
2.482770	281.487390	398.649744	298.765888	1801.336424	
2.485370	281.479020	398.953574	298.816940	1801.806489	
2.488050	281.470380	399.267442	298.869708	1802.288462	
2.490820	281.461460	399.592279	298.924406	1802.782538	
2.493670	281.452230	399.928551	298.980850	1803.291025	
2.496620	281.442670	400.277191	299.039453	1803.814077	
2.499670	281.432780	400.638704	299.100235	1804.353884	
2.502830	281.422530	401.014026	299.163414	1804.907467	
2.506100	281.411900	401.404109	299.229014	1805.479488	
2.509490	281.400860	401.809904	299.297259	1806.069957	
2.513000	281.389390	402.231926	299.368176	1806.676325	
2.516650	281.377460	402.671140	299.442199	1807.303144	
2.520440	281.365040	403.128524	299.519361	1807.948737	
2.524380	281.352110	403.605534	299.599901	1808.613825	
2.528490	281.338610	404.104060	299.684268	1809.301597	
2.532760	281.324520	404.625129	299.772302	1810.013217	
2.537220	281.309800	405.170689	299.864671	1810.748551	
2.541870	281.294390	405.742686	299.961429	1811.510480	
2.546730	281.278250	406.342650	300.063056	1812.299264	
2.551820	281.261320	406.973505	300.170041	1813.117784	
2.557150	281.243540	407.636816	300.282672	1813.964491	
2.562720	281.224890	408.334680	300.401037	1814.843178	
2.568570	281.205290	409.069168	300.526083	1815.751370	
2.574690	281.184680	409.844286	300.657704	1816.696084	
2.581110	281.163000	410.662214	300.796668	1817.674347	
2.587840	281.140180	411.525641	300.943326	1818.688535	
2.594910	281.116170	412.436375	301.098484	1819.735929	
2.602290	281.090970	413.396794	301.261645	1820.819057	
2.609970	281.064670	414.401768	301.432755	1821.926815	
2.617900	281.037400	415.446141	301.610857	1823.051542	
2.626060	281.009220	416.528948	301.795643	1824.188714	
2.634450	280.980130	417.648191	301.987255	1825.333980	
2.643060	280.950130	418.808155	302.185604	1826.491865	
2.651900	280.919200	420.007332	302.391075	1827.654088	
2.660980	280.887300	421.247602	302.604056	1828.824235	
2.670310	280.854350	422.532814	302.824953	1830.000980	
2.679910	280.820320	423.865459	303.054428	1831.183495	
2.689750	280.785210	425.246623	303.291959	1832.370074	
2.699860	280.749010	426.676407	303.538476	1833.559103	
2.710220	280.711710	428.150909	303.793705	1834.741686	
2.720820	280.673320	429.669196	304.057600	1835.911934	
2.731540	280.634310	431.219109	304.327346	1837.061646	
2.742180	280.595380	432.774185	304.597975	1838.173912	
2.752760	280.556440	434.335308	304.869964	1839.247812	
2.763320	280.517400	435.909040	305.144329	1840.289597	
2.773880	280.478140	437.498947	305.421603	1841.301084	
2.784470	280.438580	439.107667	305.702609	1842.284035	
2.795100	280.398640	440.743638	305.987662	1843.245344	
2.805790	280.358290	442.397136	306.277377	1844.171019	
2.816550	280.317410	444.077150	306.572086	1845.070003	
2.827430	280.275900	445.785448	306.873260	1845.940488	
2.838410	280.233760	447.527126	307.180456	1846.785539	
2.849430	280.191230	449.293685	307.492095	1847.603686	
2.860270	280.149180	451.042571	307.801958	1848.369553	
2.870950	280.107530	452.779237	308.110472	1849.089950	
2.881520	280.066090	454.512414	308.418972	1849.771444	
2.892020	280.024720	456.244506	308.728558	1850.413298	
2.902500	279.983220	457.987800	309.040671	1851.024274	
2.912980	279.941510	459.740591	309.355915	1851.600025	
2.923500	279.899410	461.506038	309.675513	1852.139476	
2.934100	279.856810	463.298019	310.000732	1852.652533	
2.944780	279.813640	465.112240	310.331661	1853.133265	
2.955560	279.769850	466.951092	310.669007	1853.580263	
2.966340	279.725810	468.795938	311.009705	1853.989277	
2.976930	279.682380	470.611779	311.347694	1854.355755	
2.987370	279.639330	472.405829	311.684081	1854.678924	
2.997720	279.596450	474.189489	312.020678	1854.963949	
3.008030	279.553520	475.974373	312.359043	1855.220236	
3.018370	279.510230	477.770483	312.701466	1855.442172	
3.028800	279.466400	479.584651	313.049979	1855.633894	
3.039350	279.421880	481.420943	313.405667	1855.793680	
3.050020	279.376600	483.281231	313.768629	1855.919420	
3.060820	279.330540	485.170413	314.139311	1856.012596	
3.071650	279.284150	487.065548	314.514370	1856.072140	
3.082390	279.237960	488.943356	314.889628	1856.096371	
3.093050	279.191860	490.808149	315.265339	1856.084957	
3.103670	279.145720	492.672091	315.642838	1856.044111	
3.114280	279.099450	494.530761	316.023166	1855.970213	
3.124880	279.052970	496.386923	316.406292	1855.864357	
3.135520	279.006120	498.246347	316.794014	1855.761073	
3.146230	278.958780	500.114945	317.187455	1855.656418	
3.157020	278.910830	501.995666	317.587033	1855.519371	
3.167900	278.862320	503.887382	317.993176	1855.349271	
3.178850	278.813240	505.791966	318.405185	1855.149016	
3.189890	278.763550	507.713147	318.823870	1854.917525	
