#Time [s]	Free Stream Temperature [K]	Boundary Layer Temperature [K]	Skin Temperature [K]	Convective Heat Transfer Coefficient [W/m^2-K]	
0.000000	285.269500	285.269500	285.269500	0.000000	
0.004000	285.269500	285.269500	285.269781	0.000000	
0.008000	285.269500	285.269500	285.270062	0.000000	
0.012000	285.269500	285.269500	285.270343	0.000000	
0.016000	285.269500	285.269500	285.270624	0.000000	
0.020000	285.269500	285.269500	285.270905	0.000000	
0.024000	285.269500	285.269500	285.271186	0.000000	
0.028000	285.269500	285.269500	285.271467	0.000000	
0.032000	285.269500	285.269500	285.271748	0.210486	
0.036000	285.269500	285.269501	285.272028	0.674113	
0.040000	285.269500	285.269503	285.272309	1.323903	
0.044000	285.269500	285.269514	285.272590	2.504888	
0.048000	285.269500	285.269557	285.272871	4.407071	
0.052000	285.269500	285.269677	285.273152	6.931480	
0.056000	285.269500	285.269978	285.273433	10.312762	
0.060000	285.269500	285.270614	285.273714	14.465937	
0.064000	285.269400	285.271673	285.273995	19.243344	
0.068000	285.269400	285.273576	285.274276	24.540960	
0.072000	285.269300	285.276348	285.274557	30.256622	
0.076000	285.269200	285.280066	285.274838	35.976183	
0.080000	285.269000	285.284686	285.275119	41.666057	
0.084000	285.268900	285.290409	285.275400	47.273532	
0.088000	285.268700	285.296988	285.275682	52.746145	
0.092000	285.268500	285.304526	285.275965	58.101084	
0.096000	285.268200	285.312871	285.276248	63.318680	
0.100000	285.268000	285.322204	285.276532	68.409166	
0.104000	285.267700	285.332276	285.276817	73.368575	
0.108000	285.267400	285.343129	285.277103	78.192983	
0.112000	285.267000	285.354635	285.277390	82.891575	
0.116000	285.266600	285.366858	285.277680	87.470440	
0.120000	285.266300	285.379869	285.277971	91.937902	
0.124000	285.265800	285.393331	285.278264	96.296031	
0.128000	285.265400	285.407507	285.278559	100.549555	
0.132000	285.265000	285.422274	285.278856	104.705054	
0.136000	285.264500	285.437551	285.279157	108.778527	
0.140000	285.264000	285.453423	285.279460	112.775518	
0.144000	285.263400	285.469796	285.279766	116.705045	
0.148000	285.262900	285.486884	285.280076	120.576415	
0.152000	285.262300	285.504472	285.280389	124.391405	
0.156000	285.261700	285.522661	285.280706	128.154891	
0.160000	285.261100	285.541437	285.281026	131.868196	
0.164000	285.260500	285.560799	285.281352	135.534992	
0.168000	285.259800	285.580645	285.281681	139.158384	
0.172000	285.259100	285.601079	285.282016	142.740548	
0.176000	285.258400	285.622151	285.282356	146.294591	
0.180000	285.257700	285.643868	285.282701	149.821919	
0.184000	285.256900	285.666071	285.283051	153.313377	
0.188000	285.256200	285.688890	285.283408	156.763499	
0.192000	285.255400	285.712117	285.283771	160.171292	
0.196000	285.254600	285.735882	285.284140	163.546069	
0.200000	285.253700	285.760084	285.284516	166.886866	
0.204000	285.252900	285.784939	285.284900	170.198725	
0.208000	285.252000	285.810274	285.285290	173.487982	
0.212000	285.251100	285.836180	285.285689	176.751651	
0.216000	285.250200	285.862652	285.286095	179.991610	
0.220000	285.249200	285.889586	285.286510	183.209849	
0.224000	285.248300	285.917182	285.286933	186.404266	
0.228000	285.247300	285.945238	285.287365	189.577187	
0.232000	285.246300	285.973841	285.287807	192.727868	
0.236000	285.245300	286.002946	285.288259	195.852616	
0.240000	285.244200	286.032439	285.288720	198.951178	
0.244000	285.243200	286.062561	285.289192	202.028727	
0.248000	285.242100	286.093167	285.289674	205.091232	
0.252000	285.241000	286.124342	285.290167	208.137827	
0.256000	285.239800	286.155955	285.290672	211.165906	
0.260000	285.238700	286.188184	285.291189	214.174228	
0.264000	285.237500	286.220888	285.291717	217.166901	
0.268000	285.236300	286.254216	285.292258	220.151870	
0.272000	285.235100	286.288157	285.292812	223.126527	
0.276000	285.233900	286.322642	285.293380	226.085310	
0.280000	285.232700	286.357647	285.293960	229.024850	
0.284000	285.231400	286.393075	285.294556	231.949764	
0.288000	285.230100	286.429034	285.295165	234.857283	
0.292000	285.228800	286.465516	285.295789	237.750973	
0.296000	285.227500	286.502565	285.296429	240.630810	
0.300000	285.226100	286.540081	285.297084	243.500803	
0.304000	285.224700	286.578157	285.297755	246.356872	
0.308000	285.223300	286.616792	285.298443	249.203060	
0.312000	285.221900	286.655981	285.299147	252.035239	
0.316000	285.220500	286.695737	285.299869	254.856551	
0.320000	285.219000	286.735955	285.300609	257.668883	
0.326000	285.216800	286.797362	285.301745	261.861432	
0.335000	285.213400	286.891610	285.303514	268.100708	
0.348500	285.208100	287.037474	285.306314	277.324333	
0.368500	285.199800	287.264024	285.310814	290.746369	
0.388500	285.191100	287.503873	285.315880	303.939091	
0.408500	285.181800	287.756962	285.321572	316.918322	
0.428500	285.172000	288.022062	285.327953	329.639289	
0.448500	285.161700	288.300019	285.335083	342.152019	
0.468500	285.151000	288.590502	285.343028	354.454508	
0.488500	285.139700	288.894178	285.351854	366.588183	
0.508500	285.128000	289.210562	285.361631	378.529853	
0.528500	285.115700	289.541023	285.372429	390.346169	
0.548500	285.103000	289.884920	285.384325	402.005766	
0.568500	285.089800	290.242317	285.397395	413.516662	
0.588500	285.076000	290.613134	285.411717	424.881469	
0.608500	285.061800	290.997082	285.427370	436.091657	
0.628500	285.047100	291.395818	285.444436	447.190350	
0.648500	285.031900	291.807094	285.463000	458.120999	
0.668500	285.016200	292.233745	285.483144	468.956892	
0.688500	285.000000	292.674337	285.504961	479.664171	
0.708500	284.983300	293.127719	285.528539	490.209969	
0.728500	284.966100	293.595175	285.553962	500.632826	
0.748500	284.948500	294.075469	285.581324	510.897191	
0.768500	284.930300	294.569634	285.610710	521.038645	
0.788500	284.911600	295.076878	285.642213	531.036252	
0.808500	284.892400	295.596894	285.675923	540.882095	
0.828500	284.872800	296.127765	285.711927	550.551796	
0.848500	284.852600	296.670817	285.750307	560.073120	
0.868500	284.831900	297.225338	285.791149	569.435563	
0.888500	284.810800	297.789799	285.834537	578.618767	
0.908500	284.789200	298.366334	285.880546	587.660636	
0.928500	284.767100	298.956612	285.929262	596.589162	
0.948500	284.744500	299.558269	285.980781	605.370618	
0.968500	284.721400	300.172844	286.035184	614.029040	
0.988500	284.697800	300.801341	286.092564	622.578416	
1.008500	284.673700	301.441938	286.153016	630.994434	
1.028500	284.649200	302.094158	286.216626	639.272666	
1.048500	284.624200	302.759062	286.283480	647.428460	
1.068500	284.598700	303.437183	286.353664	655.469381	
1.088500	284.572700	304.127798	286.427273	663.387677	
1.108500	284.546200	304.831640	286.504393	671.191814	
1.128500	284.519200	305.548917	286.585117	678.885394	
1.148500	284.491700	306.281413	286.669536	686.485614	
1.168500	284.463800	307.026768	286.757754	693.967168	
1.188500	284.435400	307.786890	286.849858	701.350241	
1.208500	284.406500	308.561046	286.945949	708.627202	
1.228500	284.377000	309.349604	287.046120	715.801656	
1.248500	284.347100	310.151771	287.150468	722.864850	
1.268500	284.316800	310.967782	287.259086	729.819181	
1.288500	284.285900	311.798340	287.372063	736.672583	
1.308500	284.254500	312.646508	287.489497	743.447497	
1.328500	284.222600	313.505711	287.611502	750.091506	
1.348500	284.190300	314.381907	287.738150	756.650010	
1.368500	284.157400	315.274361	287.869550	763.118971	
1.388500	284.124000	316.180705	288.005806	769.477939	
1.408500	284.090200	317.102975	288.147007	775.742412	
1.428500	284.055800	318.040341	288.293254	781.906647	
1.448500	284.021000	318.993815	288.444640	787.975460	
1.468500	283.985600	319.963799	288.601266	793.953633	
1.488500	283.949800	320.949090	288.763234	799.829756	
1.508500	283.913400	321.950064	288.930636	805.609515	
1.528500	283.876600	322.967783	289.103568	811.295480	
1.548500	283.839200	324.000309	289.282130	816.879122	
1.568500	283.801300	325.050995	289.466410	822.378230	
1.588500	283.763000	326.122007	289.656515	827.801714	
1.608500	283.724100	327.209259	289.852567	833.128325	
1.628500	283.684700	328.312376	290.054659	838.356323	
1.648500	283.644800	329.432545	290.262882	843.490998	
1.668500	283.604400	330.573013	290.477331	848.547890	
1.688500	283.563400	331.732164	290.698125	853.517564	
1.708500	283.522000	332.915630	290.925367	858.424109	
1.728500	283.480000	334.119410	291.159202	863.248425	
1.748500	283.437500	335.342005	291.399741	867.982850	
1.768500	283.394500	336.582334	291.647089	872.622830	
1.788500	283.350900	337.842545	291.901338	877.178061	
1.808500	283.306800	339.126644	292.162598	881.661027	
1.828500	283.262200	340.432728	292.431001	886.063828	
1.848500	283.217100	341.761025	292.706666	890.386324	
1.868500	283.171400	343.114243	292.989712	894.637302	
1.888500	283.125140	344.489804	293.280277	898.805705	
1.908500	283.078370	345.888966	293.578478	902.895391	
1.928500	283.031040	347.315607	293.884438	906.917656	
1.948500	282.983160	348.765724	294.198310	910.858547	
1.968500	282.934730	350.234767	294.520213	914.703484	
1.988500	282.885750	351.729372	294.850235	918.471870	
2.008500	282.836210	353.257156	295.188508	922.185051	
2.028500	282.786100	354.811936	295.535216	925.821643	
2.048310	282.735920	356.380595	295.887123	929.353726	
2.066750	282.688690	357.868529	296.222661	932.582716	
2.083920	282.644270	359.274326	296.542120	935.527913	
2.099650	282.603220	360.577696	296.840862	938.169503	
2.114230	282.564840	361.804128	297.122973	940.582034	
2.127920	282.528530	362.969886	297.392462	942.810717	
2.140820	282.494050	364.081753	297.650515	944.879232	
2.153020	282.461220	365.145004	297.898271	946.807767	
2.164580	282.429910	366.162929	298.136385	948.609557	
2.175550	282.400010	367.138238	298.365391	950.295320	
2.185970	282.371440	368.072653	298.585684	951.874248	
2.195890	282.344110	368.972636	298.797927	953.364288	
2.205310	282.318010	369.834799	299.001779	954.762488	
2.214260	282.293060	370.660355	299.197556	956.074297	
2.222730	282.269380	371.445287	299.384731	957.298890	
2.230710	282.246950	372.191716	299.562776	958.442760	
2.238280	282.225580	372.904445	299.733204	959.517363	
2.245490	282.205160	373.586881	299.896917	960.528989	
2.252370	282.185590	374.241726	300.054408	961.484513	
2.258950	282.166800	374.874175	300.206194	962.394792	
2.265260	282.148740	375.483509	300.352831	963.260384	
2.271300	282.131360	376.070627	300.494187	964.095201	
2.277120	282.114600	376.636444	300.631319	964.888693	
2.282710	282.098440	377.183963	300.763884	965.646605	
2.288090	282.082830	377.713360	300.892265	966.370487	
2.293270	282.067750	378.226480	301.016613	967.064551	
2.298270	282.053180	378.723971	301.137331	967.730025	
2.303090	282.039090	379.205257	301.254351	968.366855	
2.307740	282.025470	379.671423	301.367846	968.976848	
2.312220	282.012280	380.123130	301.477754	969.561916	
2.316560	281.999500	380.561483	301.584755	970.123747	
2.320750	281.987130	380.987207	301.688552	970.664918	
2.324810	281.975140	381.399768	301.789594	971.183545	
2.328720	281.963530	381.799903	301.887335	971.682149	
2.332520	281.952260	382.187905	301.982736	972.161778	
2.336190	281.941330	382.564945	302.075255	972.623073	
2.339740	281.930730	382.931363	302.165107	973.068623	
2.343180	281.920450	383.287083	302.252514	973.497058	
2.346510	281.910500	383.631635	302.337443	973.908798	
2.349720	281.900860	383.965355	302.419609	974.304761	
2.352830	281.891520	384.289437	302.499492	974.686291	
2.355850	281.882450	384.604219	302.577326	975.054260	
2.358770	281.873660	384.910088	302.652828	975.408657	
2.361600	281.865110	385.207381	302.726235	975.751985	
2.364350	281.856800	385.497326	302.797785	976.083821	
2.367020	281.848720	385.779033	302.867461	976.404707	
2.369620	281.840850	386.054140	302.935506	976.716491	
2.372140	281.833190	386.321770	303.001643	977.017208	
2.374600	281.825730	386.583156	303.066381	977.309691	
2.376990	281.818450	386.837827	303.129444	977.592613	
2.379320	281.811360	387.086192	303.191082	977.866686	
2.381590	281.804440	387.329061	303.251283	978.134091	
2.383800	281.797680	387.565975	303.310036	978.392646	
2.385960	281.791080	387.797340	303.367597	978.644709	
2.388060	281.784640	388.023564	303.423688	978.889309	
2.390120	281.778340	388.244609	303.478835	979.127368	
2.392130	281.772190	388.460897	303.532762	979.358720	
2.394090	281.766170	388.672820	303.585460	979.584887	
2.396000	281.760280	388.879936	303.636922	979.804486	
2.397880	281.754520	389.083088	303.687679	980.018785	
2.399710	281.748880	389.281825	303.737186	980.228070	
2.401500	281.743360	389.476133	303.785704	980.431560	
2.403250	281.737960	389.667293	303.833230	980.631105	
2.404970	281.732660	389.854412	303.880028	980.824733	
2.406640	281.727480	390.037498	303.925548	981.014127	
2.408290	281.722390	390.217377	303.970604	981.199726	
2.409900	281.717410	390.394058	304.014645	981.380705	
2.411470	281.712530	390.567091	304.057665	981.557348	
2.413020	281.707740	390.736889	304.100209	981.730293	
2.414530	281.703040	390.903878	304.141723	981.900163	
2.416010	281.698430	391.067183	304.182477	982.064969	
2.417470	281.693910	391.228098	304.222745	982.227347	
2.418900	281.689470	391.385738	304.262246	982.385318	
2.420300	281.685120	391.540540	304.300977	982.540321	
2.421670	281.680840	391.692914	304.338935	982.692155	
2.423020	281.676640	391.842427	304.376393	982.840242	
2.424340	281.672510	391.989500	304.413071	982.986036	
2.425640	281.668460	392.133702	304.449244	983.128128	
2.426910	281.664470	392.275879	304.484631	983.267727	
2.428170	281.660560	392.415173	304.519787	983.404498	
2.429400	281.656710	392.552432	304.554152	983.538811	
2.430670	281.652720	392.694450	304.589680	983.676834	
2.431970	281.648660	392.839555	304.626096	983.817814	
2.433290	281.644520	392.987305	304.663123	983.961164	
2.434640	281.640300	393.138582	304.701045	984.107183	
2.436010	281.635990	393.292506	304.739584	984.254704	
2.437410	281.631600	393.449970	304.779024	984.405685	
2.438830	281.627110	393.610523	304.819086	984.559549	
2.440290	281.622530	393.775059	304.860339	984.715731	
2.441780	281.617850	393.943138	304.902505	984.875317	
2.443290	281.613070	394.114768	304.945304	985.037442	
2.444840	281.608190	394.290397	304.989308	985.202646	
2.446430	281.603190	394.470015	305.034521	985.371759	
2.448050	281.598080	394.654083	305.080664	985.543627	
2.449700	281.592840	394.842149	305.127742	985.717668	
2.451400	281.587480	395.035117	305.176332	985.896645	
2.453130	281.581990	395.232991	305.225867	986.078848	
2.454910	281.576360	395.435329	305.276928	986.264523	
2.456730	281.570590	395.643473	305.329233	986.454471	
2.458590	281.564670	395.856543	305.382790	986.648372	
2.460510	281.558590	396.075428	305.438183	986.846464	
2.462470	281.552350	396.300592	305.494844	987.048409	
2.464480	281.545930	396.532031	305.553069	987.255847	
2.466550	281.539330	396.769764	305.613159	987.467034	
2.468680	281.532550	397.015149	305.675125	987.684401	
2.470860	281.525570	397.267298	305.738687	987.906789	
2.473110	281.518380	397.527114	305.804439	988.134393	
2.475420	281.510980	397.795072	305.872103	988.367673	
2.477800	281.503350	398.071180	305.941986	988.605716	
2.480250	281.495490	398.355914	306.014102	988.850657	
2.482770	281.487390	398.649744	306.088469	989.101260	
2.485370	281.479020	398.953574	306.165397	989.359370	
2.488050	281.470380	399.267442	306.244907	989.624017	
2.490820	281.461460	399.592279	306.327316	989.895311	
2.493670	281.452230	399.928551	306.412349	990.174518	
2.496620	281.442670	400.277191	306.500627	990.461722	
2.499670	281.432780	400.638704	306.592177	990.758126	
2.502830	281.422530	401.014026	306.687330	991.062095	
2.506100	281.411900	401.404109	306.786118	991.376187	
2.509490	281.400860	401.809904	306.888880	991.700410	
2.513000	281.389390	402.231926	306.995654	992.033362	
2.516650	281.377460	402.671140	307.107092	992.377544	
2.520440	281.365040	403.128524	307.223241	992.732035	
2.524380	281.352110	403.605534	307.344461	993.097230	
2.528490	281.338610	404.104060	307.471426	993.474881	
2.532760	281.324520	404.625129	307.603892	993.865626	
2.537220	281.309800	405.170689	307.742862	994.269393	
2.541870	281.294390	405.742686	307.888416	994.687763	
2.546730	281.278250	406.342650	308.041273	995.120879	
2.551820	281.261320	406.973505	308.202163	995.570323	
2.557150	281.243540	407.636816	308.371520	996.035243	
2.562720	281.224890	408.334680	308.549468	996.517725	
2.568570	281.205290	409.069168	308.737429	997.016407	
2.574690	281.184680	409.844286	308.935239	997.535142	
2.581110	281.163000	410.662214	309.144045	998.072299	
2.587840	281.140180	411.525641	309.364370	998.629183	
2.594910	281.116170	412.436375	309.597419	999.204300	
2.602290	281.090970	413.396794	309.842437	999.799038	
2.609970	281.064670	414.401768	310.099338	1000.407300	
2.617900	281.037400	415.446141	310.366676	1001.024880	
2.626060	281.009220	416.528948	310.643984	1001.649293	
2.634450	280.980130	417.648191	310.931467	1002.278150	
2.643060	280.950130	418.808155	311.228989	1002.913937	
2.651900	280.919200	420.007332	311.537116	1003.552106	
2.660980	280.887300	421.247602	311.856428	1004.194625	
2.670310	280.854350	422.532814	312.187523	1004.840768	
2.679910	280.820320	423.865459	312.531385	1005.490079	
2.689750	280.785210	425.246623	312.887226	1006.141621	
2.699860	280.749010	426.676407	313.256430	1006.794508	
2.710220	280.711710	428.150909	313.638574	1007.443857	
2.720820	280.673320	429.669196	314.033585	1008.086431	
2.731540	280.634310	431.219109	314.437235	1008.717730	
2.742180	280.595380	432.774185	314.842089	1009.328468	
2.752760	280.556440	434.335308	315.248864	1009.918139	
2.763320	280.517400	435.909040	315.659076	1010.490175	
2.773880	280.478140	437.498947	316.073523	1011.045576	
2.784470	280.438580	439.107667	316.493433	1011.585308	
2.795100	280.398640	440.743638	316.919274	1012.113155	
2.805790	280.358290	442.397136	317.351964	1012.621437	
2.816550	280.317410	444.077150	317.791994	1013.115063	
2.827430	280.275900	445.785448	318.241555	1013.593040	
2.838410	280.233760	447.527126	318.699978	1014.057052	
2.849430	280.191230	449.293685	319.164904	1014.506291	
2.860270	280.149180	451.042571	319.627054	1014.926823	
2.870950	280.107530	452.779237	320.087068	1015.322388	
2.881520	280.066090	454.512414	320.546938	1015.696592	
2.892020	280.024720	456.244506	321.008308	1016.049029	
2.902500	279.983220	457.987800	321.473322	1016.384512	
2.912980	279.941510	459.740591	321.942879	1016.700652	
2.923500	279.899410	461.506038	322.418799	1016.996862	
2.934100	279.856810	463.298019	322.902960	1017.278578	
2.944780	279.813640	465.112240	323.395491	1017.542544	
2.955560	279.769850	466.951092	323.897437	1017.787988	
2.966340	279.725810	468.795938	324.404232	1018.012574	
2.976930	279.682380	470.611779	324.906855	1018.213805	
2.987370	279.639330	472.405829	325.406958	1018.391255	
2.997720	279.596450	474.189489	325.907232	1018.547760	
3.008030	279.553520	475.974373	326.409995	1018.688485	
3.018370	279.510230	477.770483	326.918644	1018.810349	
3.028800	279.466400	479.584651	327.436192	1018.915622	
3.039350	279.421880	481.420943	327.964242	1019.003359	
3.050020	279.376600	483.281231	328.502931	1019.072402	
3.060820	279.330540	485.170413	329.052908	1019.123565	
3.071650	279.284150	487.065548	329.609207	1019.156260	
3.082390	279.237960	488.943356	330.165624	1019.169565	
3.093050	279.191860	490.808149	330.722533	1019.163298	
3.103670	279.145720	492.672091	331.281911	1019.140869	
3.114280	279.099450	494.530761	331.845299	1019.100292	
3.124880	279.052970	496.386923	332.412644	1019.042168	
3.135520	279.006120	498.246347	332.986603	1018.985455	
3.146230	278.958780	500.114945	333.568828	1018.927990	
3.157020	278.910830	501.995666	334.159928	1018.852738	
3.167900	278.862320	503.887382	334.760523	1018.759337	
3.178850	278.813240	505.791966	335.369571	1018.649379	
3.189890	278.763550	507.713147	335.988255	1018.522269	
3.201030	278.713220	509.647271	336.617229	1018.376899	
3.212160	278.662680	511.575472	337.250318	1018.214607	
3.223180	278.612450	513.482424	337.881735	1018.038142	
3.234130	278.562310	515.369443	338.513616	1017.845087	
