#Time [s]	Free Stream Temperature [K]	Boundary Layer Temperature [K]	Skin Temperature [K]	Convective Heat Transfer Coefficient [W/m^2-K]	
0.000000	285.269500	285.269500	285.269500	0.000000	
0.004000	285.269500	285.269500	285.269511	0.000000	
0.008000	285.269500	285.269500	285.269522	0.000000	
0.012000	285.269500	285.269500	285.269532	0.000000	
0.016000	285.269500	285.269500	285.269543	0.000000	
0.020000	285.269500	285.269500	285.269554	0.000000	
0.024000	285.269500	285.269500	285.269565	0.000000	
0.028000	285.269500	285.269500	285.269576	0.000000	
0.032000	285.269500	285.269500	285.269586	0.250806	
0.036000	285.269500	285.269501	285.269597	0.803243	
0.040000	285.269500	285.269503	285.269608	1.577504	
0.044000	285.269500	285.269514	285.269619	2.984715	
0.048000	285.269500	285.269557	285.269629	5.251272	
0.052000	285.269500	285.269677	285.269640	8.259248	
0.056000	285.269500	285.269978	285.269651	12.288236	
0.060000	285.269500	285.270614	285.269662	17.236977	
0.064000	285.269400	285.271673	285.269673	22.929527	
0.068000	285.269400	285.273576	285.269683	29.241934	
0.072000	285.269300	285.276348	285.269694	36.052466	
0.076000	285.269200	285.280066	285.269705	42.867645	
0.080000	285.269000	285.284686	285.269716	49.647450	
0.084000	285.268900	285.290409	285.269727	56.329072	
0.088000	285.268700	285.296988	285.269738	62.849997	
0.092000	285.268500	285.304526	285.269748	69.230709	
0.096000	285.268200	285.312871	285.269760	75.447767	
0.100000	285.268000	285.322204	285.269771	81.513368	
0.104000	285.267700	285.332276	285.269782	87.422783	
0.108000	285.267400	285.343129	285.269793	93.171335	
0.112000	285.267000	285.354635	285.269804	98.769972	
0.116000	285.266600	285.366858	285.269816	104.225947	
0.120000	285.266300	285.379869	285.269828	109.549179	
0.124000	285.265800	285.393331	285.269840	114.742135	
0.128000	285.265400	285.407507	285.269852	119.810448	
0.132000	285.265000	285.422274	285.269864	124.761959	
0.136000	285.264500	285.437551	285.269876	129.615731	
0.140000	285.264000	285.453423	285.269889	134.378370	
0.144000	285.263400	285.469796	285.269902	139.060623	
0.148000	285.262900	285.486884	285.269915	143.673578	
0.152000	285.262300	285.504472	285.269929	148.219353	
0.156000	285.261700	285.522661	285.269943	152.703758	
0.160000	285.261100	285.541437	285.269957	157.128370	
0.164000	285.260500	285.560799	285.269972	161.497563	
0.168000	285.259800	285.580645	285.269987	165.815038	
0.172000	285.259100	285.601079	285.270002	170.083389	
0.176000	285.258400	285.622151	285.270018	174.318230	
0.180000	285.257700	285.643868	285.270034	178.521240	
0.184000	285.256900	285.666071	285.270051	182.681509	
0.188000	285.256200	285.688890	285.270068	186.792523	
0.192000	285.255400	285.712117	285.270086	190.853100	
0.196000	285.254600	285.735882	285.270104	194.874337	
0.200000	285.253700	285.760084	285.270123	198.855084	
0.204000	285.252900	285.784939	285.270143	202.801350	
0.208000	285.252000	285.810274	285.270163	206.720685	
0.212000	285.251100	285.836180	285.270184	210.609530	
0.216000	285.250200	285.862652	285.270205	214.470123	
0.220000	285.249200	285.889586	285.270228	218.304837	
0.224000	285.248300	285.917182	285.270250	222.111164	
0.228000	285.247300	285.945238	285.270274	225.891877	
0.232000	285.246300	285.973841	285.270299	229.646091	
0.236000	285.245300	286.002946	285.270324	233.369404	
0.240000	285.244200	286.032439	285.270350	237.061515	
0.244000	285.243200	286.062561	285.270377	240.728587	
0.248000	285.242100	286.093167	285.270405	244.377735	
0.252000	285.241000	286.124342	285.270434	248.007924	
0.256000	285.239800	286.155955	285.270464	251.616050	
0.260000	285.238700	286.188184	285.270494	255.200635	
0.264000	285.237500	286.220888	285.270526	258.766572	
0.268000	285.236300	286.254216	285.270559	262.323331	
0.272000	285.235100	286.288157	285.270593	265.867802	
0.276000	285.233900	286.322642	285.270628	269.393358	
0.280000	285.232700	286.357647	285.270664	272.895986	
0.284000	285.231400	286.393075	285.270702	276.381185	
0.288000	285.230100	286.429034	285.270740	279.845658	
0.292000	285.228800	286.465516	285.270780	283.293652	
0.296000	285.227500	286.502565	285.270821	286.725139	
0.300000	285.226100	286.540081	285.270864	290.144898	
0.304000	285.224700	286.578157	285.270908	293.548064	
0.308000	285.223300	286.616792	285.270953	296.939458	
0.312000	285.221900	286.655981	285.271000	300.314158	
0.316000	285.220500	286.695737	285.271048	303.675910	
0.320000	285.219000	286.735955	285.271097	307.026962	
0.326000	285.216800	286.797362	285.271174	312.022619	
0.335000	285.213400	286.891610	285.271294	319.457068	
0.348500	285.208100	287.037474	285.271488	330.447536	
0.368500	285.199800	287.264024	285.271803	346.440646	
0.388500	285.191100	287.503873	285.272167	362.160516	
0.408500	285.181800	287.756962	285.272584	377.626000	
0.428500	285.172000	288.022062	285.273059	392.783747	
0.448500	285.161700	288.300019	285.273597	407.693369	
0.468500	285.151000	288.590502	285.274205	422.352475	
0.488500	285.139700	288.894178	285.274887	436.810432	
0.508500	285.128000	289.210562	285.275651	451.039603	
0.528500	285.115700	289.541023	285.276501	465.119408	
0.548500	285.103000	289.884920	285.277445	479.012473	
0.568500	285.089800	290.242317	285.278489	492.728353	
0.588500	285.076000	290.613134	285.279641	506.270160	
0.608500	285.061800	290.997082	285.280907	519.627728	
0.628500	285.047100	291.395818	285.282293	532.852446	
0.648500	285.031900	291.807094	285.283809	545.876928	
0.668500	285.016200	292.233745	285.285461	558.788504	
0.688500	285.000000	292.674337	285.287258	571.546829	
0.708500	284.983300	293.127719	285.289206	584.112740	
0.728500	284.966100	293.595175	285.291315	596.532160	
0.748500	284.948500	294.075469	285.293592	608.762728	
0.768500	284.930300	294.569634	285.296045	620.846841	
0.788500	284.911600	295.076878	285.298683	632.759551	
0.808500	284.892400	295.596894	285.301513	644.491427	
0.828500	284.872800	296.127765	285.304545	656.013420	
0.848500	284.852600	296.670817	285.307785	667.358613	
0.868500	284.831900	297.225338	285.311243	678.514489	
0.888500	284.810800	297.789799	285.314924	689.456794	
0.908500	284.789200	298.366334	285.318838	700.230689	
0.928500	284.767100	298.956612	285.322992	710.869530	
0.948500	284.744500	299.558269	285.327396	721.333129	
0.968500	284.721400	300.172844	285.332057	731.650125	
0.988500	284.697800	300.801341	285.336983	741.837187	
1.008500	284.673700	301.441938	285.342186	751.865346	
1.028500	284.649200	302.094158	285.347672	761.729324	
1.048500	284.624200	302.759062	285.353451	771.447411	
1.068500	284.598700	303.437183	285.359531	781.028622	
1.088500	284.572700	304.127798	285.365921	790.463716	
1.108500	284.546200	304.831640	285.372631	799.762785	
1.128500	284.519200	305.548917	285.379669	808.930117	
1.148500	284.491700	306.281413	285.387045	817.986207	
1.168500	284.463800	307.026768	285.394770	826.900899	
1.188500	284.435400	307.786890	285.402851	835.698246	
1.208500	284.406500	308.561046	285.411301	844.369154	
1.228500	284.377000	309.349604	285.420127	852.917919	
1.248500	284.347100	310.151771	285.429341	861.334112	
1.268500	284.316800	310.967782	285.438951	869.620589	
1.288500	284.285900	311.798340	285.448968	877.786803	
1.308500	284.254500	312.646508	285.459402	885.859493	
1.328500	284.222600	313.505711	285.470265	893.776204	
1.348500	284.190300	314.381907	285.481564	901.591029	
1.368500	284.157400	315.274361	285.493312	909.299161	
1.388500	284.124000	316.180705	285.505519	916.876228	
1.408500	284.090200	317.102975	285.518196	924.340700	
1.428500	284.055800	318.040341	285.531352	931.685733	
1.448500	284.021000	318.993815	285.544999	938.917065	
1.468500	283.985600	319.963799	285.559148	946.040394	
1.488500	283.949800	320.949090	285.573809	953.042124	
1.508500	283.913400	321.950064	285.588994	959.929032	
1.528500	283.876600	322.967783	285.604712	966.704180	
1.548500	283.839200	324.000309	285.620976	973.357403	
1.568500	283.801300	325.050995	285.637796	979.909899	
1.588500	283.763000	326.122007	285.655183	986.372285	
1.608500	283.724100	327.209259	285.673150	992.719242	
1.628500	283.684700	328.312376	285.691710	998.948696	
1.648500	283.644800	329.432545	285.710871	1005.066949	
1.668500	283.604400	330.573013	285.730647	1011.092521	
1.688500	283.563400	331.732164	285.751049	1017.014166	
1.708500	283.522000	332.915630	285.772090	1022.860590	
1.728500	283.480000	334.119410	285.793785	1028.609035	
1.748500	283.437500	335.342005	285.816148	1034.250367	
1.768500	283.394500	336.582334	285.839190	1039.779165	
1.788500	283.350900	337.842545	285.862924	1045.206979	
1.808500	283.306800	339.126644	285.887360	1050.548684	
1.828500	283.262200	340.432728	285.912516	1055.794870	
1.848500	283.217100	341.761025	285.938403	1060.945366	
1.868500	283.171400	343.114243	285.965037	1066.010646	
1.888500	283.125140	344.489804	285.992432	1070.977533	
1.908500	283.078370	345.888966	286.020603	1075.850624	
1.928500	283.031040	347.315607	286.049564	1080.643379	
1.948500	282.983160	348.765724	286.079331	1085.339171	
1.968500	282.934730	350.234767	286.109919	1089.920630	
1.988500	282.885750	351.729372	286.141340	1094.410874	
2.008500	282.836210	353.257156	286.173609	1098.835338	
2.028500	282.786100	354.811936	286.206746	1103.168542	
2.048310	282.735920	356.380595	286.240443	1107.377218	
2.066750	282.688690	357.868529	286.272632	1111.224741	
2.083920	282.644270	359.274326	286.303332	1114.734109	
2.099650	282.603220	360.577696	286.332087	1117.881711	
2.114230	282.564840	361.804128	286.359281	1120.756377	
2.127920	282.528530	362.969886	286.385294	1123.411979	
2.140820	282.494050	364.081753	286.410234	1125.876731	
2.153020	282.461220	365.145004	286.434207	1128.174689	
2.164580	282.429910	366.162929	286.457274	1130.321623	
2.175550	282.400010	367.138238	286.479481	1132.330304	
2.185970	282.371440	368.072653	286.500865	1134.211686	
2.195890	282.344110	368.972636	286.521487	1135.987152	
2.205310	282.318010	369.834799	286.541311	1137.653186	
2.214260	282.293060	370.660355	286.560367	1139.216280	
2.222730	282.269380	371.445287	286.578599	1140.675452	
2.230710	282.246950	372.191716	286.595956	1142.038437	
2.238280	282.225580	372.904445	286.612582	1143.318887	
2.245490	282.205160	373.586881	286.628564	1144.524296	
2.252370	282.185590	374.241726	286.643948	1145.662856	
2.258950	282.166800	374.874175	286.658784	1146.747505	
2.265260	282.148740	375.483509	286.673125	1147.778906	
2.271300	282.131360	376.070627	286.686957	1148.773638	
2.277120	282.114600	376.636444	286.700383	1149.719128	
2.282710	282.098440	377.183963	286.713369	1150.622224	
2.288090	282.082830	377.713360	286.725950	1151.484769	
2.293270	282.067750	378.226480	286.738143	1152.311786	
2.298270	282.053180	378.723971	286.749985	1153.104735	
2.303090	282.039090	379.205257	286.761469	1153.863555	
2.307740	282.025470	379.671423	286.772612	1154.590395	
2.312220	282.012280	380.123130	286.783407	1155.287536	
2.316560	281.999500	380.561483	286.793920	1155.956990	
2.320750	281.987130	380.987207	286.804123	1156.601825	
2.324810	281.975140	381.399768	286.814058	1157.219799	
2.328720	281.963530	381.799903	286.823673	1157.813913	
2.332520	281.952260	382.187905	286.833060	1158.385419	
2.336190	281.941330	382.564945	286.842167	1158.935077	
2.339740	281.930730	382.931363	286.851014	1159.465975	
2.343180	281.920450	383.287083	286.859622	1159.976479	
2.346510	281.910500	383.631635	286.867990	1160.467090	
2.349720	281.900860	383.965355	286.876087	1160.938903	
2.352830	281.891520	384.289437	286.883961	1161.393517	
2.355850	281.882450	384.604219	286.891636	1161.831973	
2.358770	281.873660	384.910088	286.899083	1162.254257	
2.361600	281.865110	385.207381	286.906324	1162.663352	
2.364350	281.856800	385.497326	286.913385	1163.058753	
2.367020	281.848720	385.779033	286.920262	1163.441107	
2.369620	281.840850	386.054140	286.926979	1163.812614	
2.372140	281.833190	386.321770	286.933510	1164.170937	
2.374600	281.825730	386.583156	286.939904	1164.519446	
2.376990	281.818450	386.837827	286.946133	1164.856564	
2.379320	281.811360	387.086192	286.952223	1165.183137	
2.381590	281.804440	387.329061	286.958173	1165.501765	
2.383800	281.797680	387.565975	286.963980	1165.809848	
2.385960	281.791080	387.797340	286.969671	1166.110195	
2.388060	281.784640	388.023564	286.975217	1166.401650	
2.390120	281.778340	388.244609	286.980671	1166.685310	
2.392130	281.772190	388.460897	286.986005	1166.960979	
2.394090	281.766170	388.672820	286.991219	1167.230470	
2.396000	281.760280	388.879936	286.996311	1167.492135	
2.397880	281.754520	389.083088	287.001334	1167.747484	
2.399710	281.748880	389.281825	287.006234	1167.996859	
2.401500	281.743360	389.476133	287.011037	1168.239328	
2.403250	281.737960	389.667293	287.015743	1168.477098	
2.404970	281.732660	389.854412	287.020377	1168.707816	
2.406640	281.727480	390.037498	287.024885	1168.933490	
2.408290	281.722390	390.217377	287.029348	1169.154641	
2.409900	281.717410	390.394058	287.033711	1169.370288	
2.411470	281.712530	390.567091	287.037974	1169.580768	
2.413020	281.707740	390.736889	287.042190	1169.786841	
2.414530	281.703040	390.903878	287.046304	1169.989251	
2.416010	281.698430	391.067183	287.050343	1170.185627	
2.417470	281.693910	391.228098	287.054335	1170.379109	
2.418900	281.689470	391.385738	287.058252	1170.567341	
2.420300	281.685120	391.540540	287.062092	1170.752036	
2.421670	281.680840	391.692914	287.065856	1170.932954	
2.423020	281.676640	391.842427	287.069571	1171.109408	
2.424340	281.672510	391.989500	287.073209	1171.283131	
2.425640	281.668460	392.133702	287.076797	1171.452441	
2.426910	281.664470	392.275879	287.080308	1171.618781	
2.428170	281.660560	392.415173	287.083796	1171.781751	
2.429400	281.656710	392.552432	287.087206	1171.941793	
2.430670	281.652720	392.694450	287.090732	1172.106255	
2.431970	281.648660	392.839555	287.094347	1172.274240	
2.433290	281.644520	392.987305	287.098022	1172.445050	
2.434640	281.640300	393.138582	287.101787	1172.619040	
2.436010	281.635990	393.292506	287.105613	1172.794820	
2.437410	281.631600	393.449970	287.109529	1172.974722	
2.438830	281.627110	393.610523	287.113508	1173.158060	
2.440290	281.622530	393.775059	287.117605	1173.344160	
2.441780	281.617850	393.943138	287.121793	1173.534315	
2.443290	281.613070	394.114768	287.126045	1173.727496	
2.444840	281.608190	394.290397	287.130417	1173.924346	
2.446430	281.603190	394.470015	287.134910	1174.125853	
2.448050	281.598080	394.654083	287.139495	1174.330643	
2.449700	281.592840	394.842149	287.144175	1174.538023	
2.451400	281.587480	395.035117	287.149005	1174.751285	
2.453130	281.581990	395.232991	287.153930	1174.968390	
2.454910	281.576360	395.435329	287.159007	1175.189632	
2.456730	281.570590	395.643473	287.164209	1175.415966	
2.458590	281.564670	395.856543	287.169536	1175.647009	
2.460510	281.558590	396.075428	287.175046	1175.883048	
2.462470	281.552350	396.300592	287.180683	1176.123676	
2.464480	281.545930	396.532031	287.186478	1176.370850	
2.466550	281.539330	396.769764	287.192458	1176.622491	
2.468680	281.532550	397.015149	287.198626	1176.881496	
2.470860	281.525570	397.267298	287.204955	1177.146485	
2.473110	281.518380	397.527114	287.211502	1177.417687	
2.475420	281.510980	397.795072	287.218241	1177.695653	
2.477800	281.503350	398.071180	287.225203	1177.979295	
2.480250	281.495490	398.355914	287.232388	1178.271156	
2.482770	281.487390	398.649744	287.239799	1178.569763	
2.485370	281.479020	398.953574	287.247467	1178.877316	
2.488050	281.470380	399.267442	287.255394	1179.192658	
2.490820	281.461460	399.592279	287.263612	1179.515920	
2.493670	281.452230	399.928551	287.272093	1179.848611	
2.496620	281.442670	400.277191	287.280900	1180.190830	
2.499670	281.432780	400.638704	287.290035	1180.544013	
2.502830	281.422530	401.014026	287.299532	1180.906209	
2.506100	281.411900	401.404109	287.309395	1181.280467	
2.509490	281.400860	401.809904	287.319657	1181.666797	
2.513000	281.389390	402.231926	287.330322	1182.063528	
2.516650	281.377460	402.671140	287.341457	1182.473640	
2.520440	281.365040	403.128524	287.353065	1182.896036	
2.524380	281.352110	403.605534	287.365184	1183.331186	
2.528490	281.338610	404.104060	287.377882	1183.781179	
2.532760	281.324520	404.625129	287.391133	1184.246774	
2.537220	281.309800	405.170689	287.405040	1184.727885	
2.541870	281.294390	405.742686	287.419611	1185.226396	
2.546730	281.278250	406.342650	287.434919	1185.742478	
2.551820	281.261320	406.973505	287.451037	1186.278015	
2.557150	281.243540	407.636816	287.468009	1186.831994	
2.562720	281.224890	408.334680	287.485851	1187.406898	
2.568570	281.205290	409.069168	287.504704	1188.001106	
2.574690	281.184680	409.844286	287.524554	1188.619208	
2.581110	281.163000	410.662214	287.545517	1189.259261	
2.587840	281.140180	411.525641	287.567648	1189.922820	
2.594910	281.116170	412.436375	287.591068	1190.608104	
2.602290	281.090970	413.396794	287.615704	1191.316767	
2.609970	281.064670	414.401768	287.641549	1192.041546	
2.617900	281.037400	415.446141	287.668459	1192.777427	
2.626060	281.009220	416.528948	287.696389	1193.521451	
2.634450	280.980130	417.648191	287.725362	1194.270769	
2.643060	280.950130	418.808155	287.755364	1195.028345	
2.651900	280.919200	420.007332	287.786455	1195.788759	
2.660980	280.887300	421.247602	287.818695	1196.554357	
2.670310	280.854350	422.532814	287.852146	1197.324272	
2.679910	280.820320	423.865459	287.886911	1198.097962	
2.689750	280.785210	425.246623	287.922911	1198.874311	
2.699860	280.749010	426.676407	287.960289	1199.652263	
2.710220	280.711710	428.150909	287.999004	1200.425999	
2.720820	280.673320	429.669196	288.039051	1201.191662	
2.731540	280.634310	431.219109	288.080005	1201.943891	
2.742180	280.595380	432.774185	288.121112	1202.671619	
2.752760	280.556440	434.335308	288.162444	1203.374245	
2.763320	280.517400	435.909040	288.204155	1204.055859	
2.773880	280.478140	437.498947	288.246327	1204.717650	
2.784470	280.438580	439.107667	288.289085	1205.360770	
2.795100	280.398640	440.743638	288.332478	1205.989731	
2.805790	280.358290	442.397136	288.376599	1206.595377	
2.816550	280.317410	444.077150	288.421501	1207.183560	
2.827430	280.275900	445.785448	288.467407	1207.753096	
2.838410	280.233760	447.527126	288.514252	1208.305993	
2.849430	280.191230	449.293685	288.561795	1208.841286	
2.860270	280.149180	451.042571	288.609088	1209.342374	
2.870950	280.107530	452.779237	288.656195	1209.813712	
2.881520	280.066090	454.512414	288.703320	1210.259596	
2.892020	280.024720	456.244506	288.750631	1210.679546	
2.902500	279.983220	457.987800	288.798348	1211.079292	
2.912980	279.941510	459.740591	288.846564	1211.455991	
2.923500	279.899410	461.506038	288.895466	1211.808941	
2.934100	279.856810	463.298019	288.945249	1212.144622	
2.944780	279.813640	465.112240	288.995928	1212.459152	
2.955560	279.769850	466.951092	289.047612	1212.751612	
2.966340	279.725810	468.795938	289.099833	1213.019220	
2.976930	279.682380	470.611779	289.151661	1213.258997	
2.987370	279.639330	472.405829	289.203267	1213.470439	
2.997720	279.596450	474.189489	289.254928	1213.656923	
3.008030	279.553520	475.974373	289.306884	1213.824606	
3.018370	279.510230	477.770483	289.359486	1213.969813	
3.028800	279.466400	479.584651	289.413047	1214.095252	
3.039350	279.421880	481.420943	289.467737	1214.199796	
3.050020	279.376600	483.281231	289.523571	1214.282065	
3.060820	279.330540	485.170413	289.580621	1214.343027	
3.071650	279.284150	487.065548	289.638372	1214.381985	
3.082390	279.237960	488.943356	289.696183	1214.397839	
3.093050	279.191860	490.808149	289.754093	1214.390371	
3.103670	279.145720	492.672091	289.812308	1214.363647	
3.114280	279.099450	494.530761	289.870989	1214.315297	
3.124880	279.052970	496.386923	289.930133	1214.246038	
3.135520	279.006120	498.246347	289.990017	1214.178462	
3.146230	278.958780	500.114945	290.050817	1214.109989	
3.157020	278.910830	501.995666	290.112599	1214.020323	
3.167900	278.862320	503.887382	290.175431	1213.909030	
3.178850	278.813240	505.791966	290.239208	1213.778008	
3.189890	278.763550	507.713147	290.304054	1213.626549	
3.201030	278.713220	509.647271	290.370044	1213.453333	
