#Time [s]	Free Stream Temperature [K]	Boundary Layer Temperature [K]	Skin Temperature [K]	Convective Heat Transfer Coefficient [W/m^2-K]	
0.000000	285.269500	285.269500	285.269500	0.000000	
0.004000	285.269500	285.269500	285.269517	0.000000	
0.008000	285.269500	285.269500	285.269534	0.000000	
0.012000	285.269500	285.269500	285.269551	0.000000	
0.016000	285.269500	285.269500	285.269569	0.000000	
0.020000	285.269500	285.269500	285.269586	0.000000	
0.024000	285.269500	285.269500	285.269603	0.000000	
0.028000	285.269500	285.269500	285.269620	0.000000	
0.032000	285.269500	285.269500	285.269637	0.284599	
0.036000	285.269500	285.269501	285.269654	0.911469	
0.040000	285.269500	285.269503	285.269672	1.790051	
0.044000	285.269500	285.269514	285.269689	3.386865	
0.048000	285.269500	285.269557	285.269706	5.958809	
0.052000	285.269500	285.269677	285.269723	9.372068	
0.056000	285.269500	285.269978	285.269740	13.943907	
0.060000	285.269500	285.270614	285.269757	19.559423	
0.064000	285.269400	285.271673	285.269774	26.018965	
0.068000	285.269400	285.273576	285.269792	33.181882	
0.072000	285.269300	285.276348	285.269809	40.910040	
0.076000	285.269200	285.280066	285.269826	48.643470	
0.080000	285.269000	285.284686	285.269843	56.336760	
0.084000	285.268900	285.290409	285.269860	63.918639	
0.088000	285.268700	285.296988	285.269878	71.318169	
0.092000	285.268500	285.304526	285.269895	78.558594	
0.096000	285.268200	285.312871	285.269913	85.613316	
0.100000	285.268000	285.322204	285.269930	92.496173	
0.104000	285.267700	285.332276	285.269948	99.201800	
0.108000	285.267400	285.343129	285.269966	105.724891	
0.112000	285.267000	285.354635	285.269985	112.077867	
0.116000	285.266600	285.366858	285.270003	118.268960	
0.120000	285.266300	285.379869	285.270022	124.309424	
0.124000	285.265800	285.393331	285.270041	130.202059	
0.128000	285.265400	285.407507	285.270060	135.953257	
0.132000	285.265000	285.422274	285.270080	141.571917	
0.136000	285.264500	285.437551	285.270100	147.079668	
0.140000	285.264000	285.453423	285.270121	152.484007	
0.144000	285.263400	285.469796	285.270142	157.797128	
0.148000	285.262900	285.486884	285.270164	163.031616	
0.152000	285.262300	285.504472	285.270186	168.189872	
0.156000	285.261700	285.522661	285.270209	173.278488	
0.160000	285.261100	285.541437	285.270232	178.299256	
0.164000	285.260500	285.560799	285.270256	183.257138	
0.168000	285.259800	285.580645	285.270281	188.156334	
0.172000	285.259100	285.601079	285.270307	192.999785	
0.176000	285.258400	285.622151	285.270333	197.805214	
0.180000	285.257700	285.643868	285.270360	202.574521	
0.184000	285.256900	285.666071	285.270388	207.295329	
0.188000	285.256200	285.688890	285.270417	211.960246	
0.192000	285.255400	285.712117	285.270447	216.567930	
0.196000	285.254600	285.735882	285.270477	221.130973	
0.200000	285.253700	285.760084	285.270509	225.648071	
0.204000	285.252900	285.784939	285.270542	230.126042	
0.208000	285.252000	285.810274	285.270576	234.573453	
0.212000	285.251100	285.836180	285.270611	238.986267	
0.216000	285.250200	285.862652	285.270648	243.367022	
0.220000	285.249200	285.889586	285.270686	247.718410	
0.224000	285.248300	285.917182	285.270725	252.037588	
0.228000	285.247300	285.945238	285.270765	256.327700	
0.232000	285.246300	285.973841	285.270807	260.587742	
0.236000	285.245300	286.002946	285.270850	264.812721	
0.240000	285.244200	286.032439	285.270895	269.002293	
0.244000	285.243200	286.062561	285.270941	273.163452	
0.248000	285.242100	286.093167	285.270989	277.304272	
0.252000	285.241000	286.124342	285.271039	281.423580	
0.256000	285.239800	286.155955	285.271090	285.517851	
0.260000	285.238700	286.188184	285.271144	289.585409	
0.264000	285.237500	286.220888	285.271199	293.631808	
0.268000	285.236300	286.254216	285.271256	297.667791	
0.272000	285.235100	286.288157	285.271315	301.689830	
0.276000	285.233900	286.322642	285.271375	305.690407	
0.280000	285.232700	286.357647	285.271439	309.664966	
0.284000	285.231400	286.393075	285.271504	313.619747	
0.288000	285.230100	286.429034	285.271571	317.551010	
0.292000	285.228800	286.465516	285.271641	321.463574	
0.296000	285.227500	286.502565	285.271713	325.357407	
0.300000	285.226100	286.540081	285.271787	329.237931	
0.304000	285.224700	286.578157	285.271864	333.099627	
0.308000	285.223300	286.616792	285.271943	336.947965	
0.312000	285.221900	286.655981	285.272025	340.777359	
0.316000	285.220500	286.695737	285.272109	344.592061	
0.320000	285.219000	286.735955	285.272196	348.394621	
0.326000	285.216800	286.797362	285.272331	354.063375	
0.335000	285.213400	286.891610	285.272543	362.499513	
0.348500	285.208100	287.037474	285.272884	374.970795	
0.368500	285.199800	287.264024	285.273442	393.118757	
0.388500	285.191100	287.503873	285.274086	410.956663	
0.408500	285.181800	287.756962	285.274826	428.505908	
0.428500	285.172000	288.022062	285.275670	445.705953	
0.448500	285.161700	288.300019	285.276630	462.624441	
0.468500	285.151000	288.590502	285.277714	479.258660	
0.488500	285.139700	288.894178	285.278932	495.664628	
0.508500	285.128000	289.210562	285.280297	511.810985	
0.528500	285.115700	289.541023	285.281818	527.787849	
0.548500	285.103000	289.884920	285.283508	543.552813	
0.568500	285.089800	290.242317	285.285379	559.116720	
0.588500	285.076000	290.613134	285.287442	574.483099	
0.608500	285.061800	290.997082	285.289711	589.640416	
0.628500	285.047100	291.395818	285.292199	604.646982	
0.648500	285.031900	291.807094	285.294918	619.426334	
0.668500	285.016200	292.233745	285.297883	634.077568	
0.688500	285.000000	292.674337	285.301107	648.554901	
0.708500	284.983300	293.127719	285.304605	662.813896	
0.728500	284.966100	293.595175	285.308392	676.906662	
0.748500	284.948500	294.075469	285.312481	690.785131	
0.768500	284.930300	294.569634	285.316886	704.497411	
0.788500	284.911600	295.076878	285.321624	718.015196	
0.808500	284.892400	295.596894	285.326709	731.327780	
0.828500	284.872800	296.127765	285.332154	744.402203	
0.848500	284.852600	296.670817	285.337975	757.276004	
0.868500	284.831900	297.225338	285.344186	769.934982	
0.888500	284.810800	297.789799	285.350800	782.351611	
0.908500	284.789200	298.366334	285.357831	794.577141	
0.928500	284.767100	298.956612	285.365293	806.649419	
0.948500	284.744500	299.558269	285.373203	818.522844	
0.968500	284.721400	300.172844	285.381575	830.229913	
0.988500	284.697800	300.801341	285.390425	841.789543	
1.008500	284.673700	301.441938	285.399769	853.168857	
1.028500	284.649200	302.094158	285.409622	864.361871	
1.048500	284.624200	302.759062	285.420000	875.389337	
1.068500	284.598700	303.437183	285.430918	886.261483	
1.088500	284.572700	304.127798	285.442393	896.967827	
1.108500	284.546200	304.831640	285.454440	907.519817	
1.128500	284.519200	305.548917	285.467075	917.922322	
1.148500	284.491700	306.281413	285.480316	928.198595	
1.168500	284.463800	307.026768	285.494181	938.314419	
1.188500	284.435400	307.786890	285.508686	948.297087	
1.208500	284.406500	308.561046	285.523849	958.136281	
1.228500	284.377000	309.349604	285.539688	967.836875	
1.248500	284.347100	310.151771	285.556219	977.387034	
1.268500	284.316800	310.967782	285.573461	986.789999	
1.288500	284.285900	311.798340	285.591431	996.056498	
1.308500	284.254500	312.646508	285.610146	1005.216873	
1.328500	284.222600	313.505711	285.629628	1014.200251	
1.348500	284.190300	314.381907	285.649890	1023.068017	
1.368500	284.157400	315.274361	285.670954	1031.814713	
1.388500	284.124000	316.180705	285.692839	1040.412686	
1.408500	284.090200	317.102975	285.715563	1048.882893	
1.428500	284.055800	318.040341	285.739144	1057.217567	
1.448500	284.021000	318.993815	285.763601	1065.423222	
1.468500	283.985600	319.963799	285.788954	1073.506321	
1.488500	283.949800	320.949090	285.815222	1081.451439	
1.508500	283.913400	321.950064	285.842425	1089.266263	
1.528500	283.876600	322.967783	285.870580	1096.954269	
1.548500	283.839200	324.000309	285.899708	1104.503922	
1.568500	283.801300	325.050995	285.929827	1111.939277	
1.588500	283.763000	326.122007	285.960958	1119.272381	
1.608500	283.724100	327.209259	285.993124	1126.474503	
1.628500	283.684700	328.312376	286.026345	1133.543289	
1.648500	283.644800	329.432545	286.060640	1140.485893	
1.668500	283.604400	330.573013	286.096027	1147.323328	
1.688500	283.563400	331.732164	286.132532	1154.042833	
1.708500	283.522000	332.915630	286.170174	1160.676983	
1.728500	283.480000	334.119410	286.208981	1167.199951	
1.748500	283.437500	335.342005	286.248977	1173.601376	
1.768500	283.394500	336.582334	286.290182	1179.875103	
1.788500	283.350900	337.842545	286.332616	1186.034241	
1.808500	283.306800	339.126644	286.376302	1192.095667	
1.828500	283.262200	340.432728	286.421267	1198.048704	
1.848500	283.217100	341.761025	286.467533	1203.893159	
1.868500	283.171400	343.114243	286.515127	1209.640915	
1.888500	283.125140	344.489804	286.564075	1215.277022	
1.908500	283.078370	345.888966	286.614401	1220.806694	
1.928500	283.031040	347.315607	286.666130	1226.245207	
1.948500	282.983160	348.765724	286.719293	1231.573693	
1.968500	282.934730	350.234767	286.773915	1236.772441	
1.988500	282.885750	351.729372	286.830015	1241.867683	
2.008500	282.836210	353.257156	286.887621	1246.888282	
2.028500	282.786100	354.811936	286.946768	1251.805326	
2.048310	282.735920	356.380595	287.006907	1256.581063	
2.066750	282.688690	357.868529	287.064347	1260.946987	
2.083920	282.644270	359.274326	287.119123	1264.929194	
2.099650	282.603220	360.577696	287.170422	1268.500892	
2.114230	282.564840	361.804128	287.218931	1271.762880	
2.127920	282.528530	362.969886	287.265327	1274.776288	
2.140820	282.494050	364.081753	287.309807	1277.573131	
2.153020	282.461220	365.145004	287.352559	1280.180708	
2.164580	282.429910	366.162929	287.393690	1282.616912	
2.175550	282.400010	367.138238	287.433286	1284.896235	
2.185970	282.371440	368.072653	287.471410	1287.031107	
2.195890	282.344110	368.972636	287.508174	1289.045793	
2.205310	282.318010	369.834799	287.543514	1290.936302	
2.214260	282.293060	370.660355	287.577480	1292.710001	
2.222730	282.269380	371.445287	287.609978	1294.365776	
2.230710	282.246950	372.191716	287.640913	1295.912405	
2.238280	282.225580	372.904445	287.670543	1297.365377	
2.245490	282.205160	373.586881	287.699024	1298.733199	
2.252370	282.185590	374.241726	287.726439	1300.025165	
2.258950	282.166800	374.874175	287.752876	1301.255955	
2.265260	282.148740	375.483509	287.778430	1302.426323	
2.271300	282.131360	376.070627	287.803076	1303.555082	
2.277120	282.114600	376.636444	287.826997	1304.627963	
2.282710	282.098440	377.183963	287.850133	1305.652739	
2.288090	282.082830	377.713360	287.872548	1306.631500	
2.293270	282.067750	378.226480	287.894269	1307.569946	
2.298270	282.053180	378.723971	287.915365	1308.469735	
2.303090	282.039090	379.205257	287.935822	1309.330794	
2.307740	282.025470	379.671423	287.955671	1310.155567	
2.312220	282.012280	380.123130	287.974900	1310.946638	
2.316560	281.999500	380.561483	287.993627	1311.706291	
2.320750	281.987130	380.987207	288.011800	1312.438009	
2.324810	281.975140	381.399768	288.029496	1313.139246	
2.328720	281.963530	381.799903	288.046620	1313.813409	
2.332520	281.952260	382.187905	288.063338	1314.461917	
2.336190	281.941330	382.564945	288.079557	1315.085635	
2.339740	281.930730	382.931363	288.095313	1315.688064	
2.343180	281.920450	383.287083	288.110644	1316.267351	
2.346510	281.910500	383.631635	288.125545	1316.824066	
2.349720	281.900860	383.965355	288.139965	1317.359449	
2.352830	281.891520	384.289437	288.153988	1317.875315	
2.355850	281.882450	384.604219	288.167654	1318.372848	
2.358770	281.873660	384.910088	288.180914	1318.852028	
2.361600	281.865110	385.207381	288.193809	1319.316243	
2.364350	281.856800	385.497326	288.206381	1319.764919	
2.367020	281.848720	385.779033	288.218626	1320.198790	
2.369620	281.840850	386.054140	288.230587	1320.620353	
2.372140	281.833190	386.321770	288.242215	1321.026954	
2.374600	281.825730	386.583156	288.253599	1321.422421	
2.376990	281.818450	386.837827	288.264691	1321.804960	
2.379320	281.811360	387.086192	288.275534	1322.175534	
2.381590	281.804440	387.329061	288.286127	1322.537093	
2.383800	281.797680	387.565975	288.296466	1322.886686	
2.385960	281.791080	387.797340	288.306598	1323.227501	
2.388060	281.784640	388.023564	288.316472	1323.558225	
2.390120	281.778340	388.244609	288.326182	1323.880105	
2.392130	281.772190	388.460897	288.335678	1324.192916	
2.394090	281.766170	388.672820	288.344960	1324.498718	
2.396000	281.760280	388.879936	288.354025	1324.795639	
2.397880	281.754520	389.083088	288.362967	1325.085392	
2.399710	281.748880	389.281825	288.371691	1325.368367	
2.401500	281.743360	389.476133	288.380241	1325.643506	
2.403250	281.737960	389.667293	288.388618	1325.913312	
2.404970	281.732660	389.854412	288.396867	1326.175115	
2.406640	281.727480	390.037498	288.404893	1326.431196	
2.408290	281.722390	390.217377	288.412837	1326.682145	
2.409900	281.717410	390.394058	288.420603	1326.926847	
2.411470	281.712530	390.567091	288.428191	1327.165686	
2.413020	281.707740	390.736889	288.435695	1327.399525	
2.414530	281.703040	390.903878	288.443019	1327.629207	
2.416010	281.698430	391.067183	288.450209	1327.852041	
2.417470	281.693910	391.228098	288.457315	1328.071593	
2.418900	281.689470	391.385738	288.464285	1328.285186	
2.420300	281.685120	391.540540	288.471121	1328.494766	
2.421670	281.680840	391.692914	288.477821	1328.700060	
2.423020	281.676640	391.842427	288.484433	1328.900289	
2.424340	281.672510	391.989500	288.490909	1329.097419	
2.425640	281.668460	392.133702	288.497296	1329.289542	
2.426910	281.664470	392.275879	288.503544	1329.478293	
2.428170	281.660560	392.415173	288.509753	1329.663222	
2.429400	281.656710	392.552432	288.515822	1329.844826	
2.430670	281.652720	392.694450	288.522098	1330.031447	
2.431970	281.648660	392.839555	288.528531	1330.222067	
2.433290	281.644520	392.987305	288.535072	1330.415891	
2.434640	281.640300	393.138582	288.541773	1330.613323	
2.436010	281.635990	393.292506	288.548582	1330.812787	
2.437410	281.631600	393.449970	288.555552	1331.016929	
2.438830	281.627110	393.610523	288.562633	1331.224968	
2.440290	281.622530	393.775059	288.569925	1331.436143	
2.441780	281.617850	393.943138	288.577379	1331.651919	
2.443290	281.613070	394.114768	288.584946	1331.871128	
2.444840	281.608190	394.290397	288.592727	1332.094501	
2.446430	281.603190	394.470015	288.600722	1332.323159	
2.448050	281.598080	394.654083	288.608883	1332.555542	
2.449700	281.592840	394.842149	288.617210	1332.790863	
2.451400	281.587480	395.035117	288.625806	1333.032859	
2.453130	281.581990	395.232991	288.634570	1333.279216	
2.454910	281.576360	395.435329	288.643605	1333.530268	
2.456730	281.570590	395.643473	288.652862	1333.787096	
2.458590	281.564670	395.856543	288.662342	1334.049269	
2.460510	281.558590	396.075428	288.672147	1334.317111	
2.462470	281.552350	396.300592	288.682179	1334.590161	
2.464480	281.545930	396.532031	288.692489	1334.870639	
2.466550	281.539330	396.769764	288.703132	1335.156185	
2.468680	281.532550	397.015149	288.714107	1335.450087	
2.470860	281.525570	397.267298	288.725368	1335.750779	
2.473110	281.518380	397.527114	288.737018	1336.058522	
2.475420	281.510980	397.795072	288.749010	1336.373940	
2.477800	281.503350	398.071180	288.761396	1336.695798	
2.480250	281.495490	398.355914	288.774181	1337.026984	
2.482770	281.487390	398.649744	288.787367	1337.365825	
2.485370	281.479020	398.953574	288.801010	1337.714816	
2.488050	281.470380	399.267442	288.815113	1338.072646	
2.490820	281.461460	399.592279	288.829734	1338.439463	
2.493670	281.452230	399.928551	288.844823	1338.816979	
2.496620	281.442670	400.277191	288.860491	1339.205308	
2.499670	281.432780	400.638704	288.876744	1339.606077	
2.502830	281.422530	401.014026	288.893640	1340.017074	
2.506100	281.411900	401.404109	288.911185	1340.441759	
2.509490	281.400860	401.809904	288.929441	1340.880141	
2.513000	281.389390	402.231926	288.948414	1341.330326	
2.516650	281.377460	402.671140	288.968221	1341.795696	
2.520440	281.365040	403.128524	288.988871	1342.275003	
2.524380	281.352110	403.605534	289.010428	1342.768784	
2.528490	281.338610	404.104060	289.033013	1343.279407	
2.532760	281.324520	404.625129	289.056584	1343.807735	
2.537220	281.309800	405.170689	289.081320	1344.353668	
2.541870	281.294390	405.742686	289.107236	1344.919347	
2.546730	281.278250	406.342650	289.134461	1345.504964	
2.551820	281.261320	406.973505	289.163127	1346.112658	
2.557150	281.243540	407.636816	289.193313	1346.741278	
2.562720	281.224890	408.334680	289.225042	1347.393642	
2.568570	281.205290	409.069168	289.258569	1348.067911	
2.574690	281.184680	409.844286	289.293868	1348.769294	
2.581110	281.163000	410.662214	289.331145	1349.495586	
2.587840	281.140180	411.525641	289.370496	1350.248549	
2.594910	281.116170	412.436375	289.412139	1351.026166	
2.602290	281.090970	413.396794	289.455941	1351.830312	
2.609970	281.064670	414.401768	289.501892	1352.652744	
2.617900	281.037400	415.446141	289.549733	1353.487776	
2.626060	281.009220	416.528948	289.599386	1354.332046	
2.634450	280.980130	417.648191	289.650889	1355.182325	
2.643060	280.950130	418.808155	289.704220	1356.041974	
2.651900	280.919200	420.007332	289.759484	1356.904843	
2.660980	280.887300	421.247602	289.816787	1357.773595	
2.670310	280.854350	422.532814	289.876240	1358.647245	
2.679910	280.820320	423.865459	289.938024	1359.525180	
2.689750	280.785210	425.246623	290.002000	1360.406131	
2.699860	280.749010	426.676407	290.068420	1361.288902	
2.710220	280.711710	428.150909	290.137213	1362.166887	
2.720820	280.673320	429.669196	290.208370	1363.035714	
2.731540	280.634310	431.219109	290.281132	1363.889294	
2.742180	280.595380	432.774185	290.354162	1364.715074	
2.752760	280.556440	434.335308	290.427587	1365.512369	
2.763320	280.517400	435.909040	290.501682	1366.285821	
2.773880	280.478140	437.498947	290.576591	1367.036779	
2.784470	280.438580	439.107667	290.652536	1367.766551	
2.795100	280.398640	440.743638	290.729605	1368.480256	
2.805790	280.358290	442.397136	290.807962	1369.167505	
2.816550	280.317410	444.077150	290.887700	1369.834937	
2.827430	280.275900	445.785448	290.969218	1370.481211	
2.838410	280.233760	447.527126	291.052398	1371.108602	
2.849430	280.191230	449.293685	291.136813	1371.716019	
2.860270	280.149180	451.042571	291.220779	1372.284621	
2.870950	280.107530	452.779237	291.304410	1372.819465	
2.881520	280.066090	454.512414	291.388068	1373.325427	
2.892020	280.024720	456.244506	291.472051	1373.801959	
2.902500	279.983220	457.987800	291.556750	1374.255565	
2.912980	279.941510	459.740591	291.642330	1374.683020	
2.923500	279.899410	461.506038	291.729123	1375.083525	
2.934100	279.856810	463.298019	291.817475	1375.464433	
2.944780	279.813640	465.112240	291.907412	1375.821343	
2.955560	279.769850	466.951092	291.999126	1376.153208	
2.966340	279.725810	468.795938	292.091788	1376.456872	
2.976930	279.682380	470.611779	292.183748	1376.728956	
2.987370	279.639330	472.405829	292.275308	1376.968886	
2.997720	279.596450	474.189489	292.366960	1377.180497	
3.008030	279.553520	475.974373	292.459129	1377.370772	
3.018370	279.510230	477.770483	292.552439	1377.535544	
3.028800	279.466400	479.584651	292.647446	1377.677884	
3.039350	279.421880	481.420943	292.744447	1377.796514	
3.050020	279.376600	483.281231	292.843473	1377.889867	
3.060820	279.330540	485.170413	292.944647	1377.959044	
3.071650	279.284150	487.065548	293.047059	1378.003251	
3.082390	279.237960	488.943356	293.149571	1378.021241	
3.093050	279.191860	490.808149	293.252250	1378.012767	
3.103670	279.145720	492.672091	293.355465	1377.982442	
3.114280	279.099450	494.530761	293.459498	1377.927577	
3.124880	279.052970	496.386923	293.564343	1377.848987	
3.135520	279.006120	498.246347	293.670495	1377.772306	
3.146230	278.958780	500.114945	293.778262	1377.694607	
3.157020	278.910830	501.995666	293.887762	1377.592859	
3.167900	278.862320	503.887382	293.999114	1377.466571	
3.178850	278.813240	505.791966	294.112131	1377.317897	
3.189890	278.763550	507.713147	294.227037	1377.146031	
3.201030	278.713220	509.647271	294.343958	1376.949476	
